3.320359999999999978e-02,2.419999999999999842e-03,2.479999999999999566e-03,2.419999999999999842e-03,2.539999999999999723e-03,2.489599999999999366e-03,2.449199999999999901e-03,2.682599999999999915e-02,2.399999999999999790e-03,3.067999999999999547e-03
2.730399999999999841e-02,1.736079999999999915e-02,1.242720000000000109e-02,3.388799999999999972e-03,2.647999999999999746e-03,2.449599999999999694e-03,4.117839999999999695e-02,3.652479999999999616e-02,1.059079999999999744e-02,4.178399999999999649e-03
3.013719999999999941e-02,1.633520000000000458e-02,3.675679999999998532e-02,6.697200000000002977e-03,2.961599999999999996e-03,2.538799999999999911e-03,1.201644000000000184e-01,5.045879999999999810e-02,2.645479999999999707e-02,1.986640000000000281e-02
2.068560000000000190e-02,2.410000000000000250e-03,2.519999999999999671e-03,2.429999999999999868e-03,2.529999999999999263e-03,2.399999999999999790e-03,1.040000000000000299e-02,2.952439999999999926e-02,2.410000000000000250e-03,3.136799999999999485e-03
3.518639999999999962e-02,2.410000000000000250e-03,2.529999999999999263e-03,2.410000000000000250e-03,2.569999999999999368e-03,2.399999999999999790e-03,3.067999999999999547e-03,3.145760000000000223e-02,2.399999999999999790e-03,2.479999999999999566e-03
6.245959999999999707e-02,1.378176000000000123e-01,2.110240000000000379e-02,6.034400000000001395e-03,3.168799999999999829e-03,2.479999999999999566e-03,9.015040000000000553e-02,5.303519999999999762e-02,1.161487999999999965e-01,1.710120000000000390e-02
5.364599999999999924e-02,1.731839999999999768e-02,4.848400000000000105e-03,2.645600000000000122e-03,2.569199999999999349e-03,2.821599999999999196e-03,4.376640000000000391e-02,4.438479999999999509e-02,2.039599999999998706e-02,2.879800000000000415e-02
2.381360000000000074e-02,2.399999999999999790e-03,2.489999999999999158e-03,2.419999999999999842e-03,2.559999999999999776e-03,2.419999999999999842e-03,8.582400000000000445e-03,2.920799999999999785e-02,2.725200000000000105e-03,2.716000000000000098e-03
1.352080000000000122e-02,1.070072000000000106e-01,2.654400000000000162e-02,1.550960000000000012e-02,5.565200000000000181e-03,2.637200000000000134e-03,6.929240000000000399e-02,3.619200000000000195e-02,7.545119999999999605e-02,5.642559999999999243e-02
1.777839999999999629e-02,1.727972000000000119e-01,7.165720000000000423e-02,8.398000000000002685e-03,3.578799999999999603e-03,2.597200000000000029e-03,1.790615999999999874e-01,4.847839999999999094e-02,1.883827999999999614e-01,5.125919999999999088e-02
2.964799999999999641e-03,2.399999999999999790e-03,2.529999999999999263e-03,2.429999999999999868e-03,2.579999999999999828e-03,2.399999999999999790e-03,2.055359999999999826e-02,2.355439999999999964e-02,3.040399999999999527e-03,7.866000000000001463e-03
3.269200000000000318e-03,2.399999999999999790e-03,2.518799999999999858e-03,2.429999999999999868e-03,2.479999999999999566e-03,2.419999999999999842e-03,1.898799999999999794e-02,2.630080000000000265e-02,4.330399999999999007e-03,7.280000000000000013e-03
7.045280000000000986e-02,4.915231999999999934e-01,3.131403999999999854e-01,7.776439999999999741e-02,2.996800000000000158e-02,9.596800000000000816e-03,3.741624000000000061e-01,1.188080000000000108e-01,4.964339999999999864e-01,2.465640000000000054e-01
4.858000000000000339e-03,5.847519999999999107e-02,3.864799999999999486e-02,2.410000000000000250e-03,2.549999999999999750e-03,2.419999999999999842e-03,9.652439999999998244e-02,3.930480000000000085e-02,1.042087999999999903e-01,2.178520000000000109e-02
4.296400000000000566e-03,2.399999999999999790e-03,2.587199999999999136e-03,2.439999999999999461e-03,2.559999999999999776e-03,2.419999999999999842e-03,2.059519999999999754e-02,2.983840000000000103e-02,3.267200000000000052e-03,6.893200000000000369e-03
1.341760000000000001e-02,1.307427999999999924e-01,8.941600000000000936e-03,7.100399999999998900e-03,3.345999999999999582e-03,2.528799999999999885e-03,1.340988000000000180e-01,5.368360000000000493e-02,5.748919999999999725e-02,1.598320000000000296e-02
6.470800000000000510e-03,4.117239999999999789e-02,9.531600000000002917e-03,2.429999999999999868e-03,2.489999999999999158e-03,2.399999999999999790e-03,7.363560000000000938e-02,4.162959999999999577e-02,5.154159999999999991e-02,3.684999999999999387e-02
3.290400000000000182e-03,2.399999999999999790e-03,2.509999999999999645e-03,2.410000000000000250e-03,2.469999999999999540e-03,2.429999999999999868e-03,3.774360000000000215e-02,3.002839999999999676e-02,3.353200000000000191e-03,8.255600000000001826e-03
1.548760000000000067e-02,1.558923999999999865e-01,3.643559999999999161e-02,1.899000000000000341e-02,5.749599999999999676e-03,2.549199999999999730e-03,8.461840000000001027e-02,4.414119999999999849e-02,1.086479999999999946e-01,1.032799999999999829e-01
1.927800000000000347e-02,2.335404000000000091e-01,1.527476000000000111e-01,1.379399999999999897e-02,4.626800000000000357e-03,2.587599999999999796e-03,1.748319999999999874e-01,5.911760000000001319e-02,3.422563999999999607e-01,8.803560000000000552e-02
3.669599999999999425e-03,8.735200000000001991e-03,1.002711999999999909e-01,2.439999999999999461e-03,2.479999999999999566e-03,2.410000000000000250e-03,5.146359999999999824e-02,3.379039999999999822e-02,1.492784000000000055e-01,1.213080000000000061e-02
7.499200000000000137e-03,5.455280000000000545e-02,9.896560000000000079e-02,4.963599999999999436e-03,2.489999999999999158e-03,2.399999999999999790e-03,3.253759999999999986e-02,4.413160000000000693e-02,1.683108000000000104e-01,3.581999999999999768e-02
4.483880000000000504e-02,3.628432000000000324e-01,3.379103999999999997e-01,3.921160000000000617e-02,1.323679999999999995e-02,3.324799999999999717e-03,2.055567999999999840e-01,9.842839999999999923e-02,5.480396000000000711e-01,1.324696000000000207e-01
3.749600000000000068e-03,1.372160000000000220e-02,6.209080000000000155e-02,2.419999999999999842e-03,2.539999999999999723e-03,2.400400000000000450e-03,5.570519999999998945e-02,3.364360000000000267e-02,1.179523999999999850e-01,4.495679999999999815e-02
3.142799999999999847e-03,2.419999999999999842e-03,2.519999999999999671e-03,2.410000000000000250e-03,2.539999999999999723e-03,2.399999999999999790e-03,2.691199999999999842e-02,2.868519999999999751e-02,3.058399999999999747e-03,4.818400000000000460e-03
1.384999999999999946e-02,1.005400000000000044e-01,1.950560000000000141e-02,6.551600000000000305e-03,3.473199999999999205e-03,2.449999999999999487e-03,1.333007999999999693e-01,5.330079999999999540e-02,9.347120000000000428e-02,2.173520000000000313e-02
7.616800000000000827e-03,3.954719999999999763e-02,5.486919999999999298e-02,3.331999999999999892e-03,2.608799999999999661e-03,2.410000000000000250e-03,1.276448000000000027e-01,5.434159999999999685e-02,1.291275999999999813e-01,5.727360000000000090e-02
3.425199999999999773e-03,2.429999999999999868e-03,2.529999999999999263e-03,2.410000000000000250e-03,2.509999999999999645e-03,2.410000000000000250e-03,4.837239999999999596e-02,2.790039999999999881e-02,3.561999999999999195e-03,8.021600000000000258e-03
1.075079999999999959e-02,1.023507999999999918e-01,5.457680000000000170e-02,6.280799999999999578e-03,2.657599999999999546e-03,2.429999999999999868e-03,5.647400000000000336e-02,5.052080000000000459e-02,1.251140000000000030e-01,5.050519999999999315e-02
1.069000000000000158e-02,1.081616000000000105e-01,6.892520000000000591e-02,3.900400000000000481e-03,2.873999999999999819e-03,2.399999999999999790e-03,9.315559999999999119e-02,5.383559999999999734e-02,1.690124000000000071e-01,4.640319999999999862e-02
3.049999999999999760e-03,2.410000000000000250e-03,3.401199999999999189e-03,2.429999999999999868e-03,2.479999999999999566e-03,2.410000000000000250e-03,2.741959999999999884e-02,3.004000000000000073e-02,8.480399999999999050e-03,1.850839999999999777e-02
4.470400000000000242e-03,3.181080000000000019e-02,9.752799999999998970e-03,4.073199999999999044e-03,2.618399999999999461e-03,2.410000000000000250e-03,3.555880000000000846e-02,3.642880000000000423e-02,3.675119999999999776e-02,4.176080000000000070e-02
2.104720000000000202e-02,1.800383999999999873e-01,1.619028000000000134e-01,6.433200000000001764e-03,2.872800000000000006e-03,2.656799999999999527e-03,1.486956000000000111e-01,6.779599999999999516e-02,2.813011999999999735e-01,1.349715999999999971e-01
2.718399999999999723e-03,2.537519999999998666e-02,1.745919999999999417e-02,2.410000000000000250e-03,2.519999999999999671e-03,2.399999999999999790e-03,5.414920000000000150e-02,2.984279999999999572e-02,4.714479999999998672e-02,5.422519999999999424e-02
2.964399999999999848e-03,2.399999999999999790e-03,2.559999999999999776e-03,2.399999999999999790e-03,2.529999999999999697e-03,2.410000000000000250e-03,2.807959999999999970e-02,2.581400000000000014e-02,4.325200000000000398e-03,1.174960000000000067e-02
2.043000000000000371e-02,3.104411999999999727e-01,4.598919999999999397e-02,3.508400000000000060e-03,2.509999999999999645e-03,2.459999999999999947e-03,2.563799999999999760e-02,3.479760000000000492e-02,1.963103999999999960e-01,2.640679999999999694e-01
3.358799999999999460e-03,3.807599999999999960e-03,9.730000000000000801e-03,2.399999999999999790e-03,2.509999999999999645e-03,2.399999999999999790e-03,3.490319999999999534e-02,2.673840000000000244e-02,6.478400000000002212e-03,1.234520000000000235e-02
2.765599999999999569e-03,2.399999999999999790e-03,2.529999999999999263e-03,2.410000000000000250e-03,2.499999999999999618e-03,2.410000000000000250e-03,2.764399999999999323e-03,2.138759999999999967e-02,2.410000000000000250e-03,2.508799999999999832e-03
5.039199999999998889e-03,1.268356000000000205e-01,4.046799999999999703e-03,2.399999999999999790e-03,2.500000000000000052e-03,2.399999999999999790e-03,7.132399999999998810e-03,1.961720000000000130e-02,6.855280000000001095e-02,1.323795999999999862e-01
4.667199999999999821e-03,1.316599999999999993e-01,4.701600000000000223e-03,2.419999999999999842e-03,2.509999999999999645e-03,2.419999999999999842e-03,7.495199999999999606e-03,2.292879999999999918e-02,5.192320000000000269e-02,9.150760000000002226e-02
2.784000000000000016e-03,2.399999999999999790e-03,2.509999999999999645e-03,2.399999999999999790e-03,2.459999999999999513e-03,2.399999999999999790e-03,2.627999999999999694e-03,2.244760000000000158e-02,2.399999999999999790e-03,2.419999999999999842e-03
3.296399999999999244e-03,5.262479999999999936e-02,2.637599999999999494e-03,2.419999999999999842e-03,2.599999999999999447e-03,2.410000000000000250e-03,3.362399999999999764e-03,2.040319999999999981e-02,2.424600000000000019e-02,2.716920000000000099e-02
7.147999999999999840e-03,1.994371999999999812e-01,3.166399999999999337e-03,2.410000000000000250e-03,2.509999999999999645e-03,2.410000000000000250e-03,5.352800000000000440e-03,2.149920000000000303e-02,7.557799999999999241e-02,1.068819999999999909e-01
2.863600000000000000e-03,2.399999999999999790e-03,2.529999999999999263e-03,2.429999999999999868e-03,2.449999999999999921e-03,2.410000000000000250e-03,2.657199999999999753e-03,2.090959999999999694e-02,2.419999999999999842e-03,2.549999999999999750e-03
2.637599999999999927e-03,2.399999999999999790e-03,2.519999999999999671e-03,2.410000000000000250e-03,2.519999999999999671e-03,2.419999999999999842e-03,2.657599999999999546e-03,1.779639999999999694e-02,2.399999999999999790e-03,2.479199999999999546e-03
6.661600000000000160e-03,2.168335999999999875e-01,3.844399999999999554e-03,2.410000000000000250e-03,2.539999999999999723e-03,2.399999999999999790e-03,6.057600000000000658e-03,1.707480000000000109e-02,8.761359999999999981e-02,1.609579999999999900e-01
2.697999999999999877e-03,2.399999999999999790e-03,2.559999999999999776e-03,2.419999999999999842e-03,2.509999999999999645e-03,2.399999999999999790e-03,2.529599999999999470e-03,1.756399999999999975e-02,2.449199999999999901e-03,2.716399999999999891e-03
2.648399999999999539e-03,2.399999999999999790e-03,2.509999999999999645e-03,2.429999999999999868e-03,2.499999999999999618e-03,2.410000000000000250e-03,2.539999999999999723e-03,1.958959999999999868e-02,2.578399999999999356e-03,3.533999999999999815e-03
1.109799999999999849e-02,2.103896000000000099e-01,5.945599999999999670e-03,2.410000000000000250e-03,2.539999999999999723e-03,2.429999999999999868e-03,6.555599999999999969e-03,2.311440000000000369e-02,1.041248000000000035e-01,1.577860000000000096e-01
4.853200000000000222e-03,7.811320000000004926e-02,6.279200000000001274e-03,2.429999999999999868e-03,2.519999999999999671e-03,2.419999999999999842e-03,3.160399999999999841e-03,2.254800000000000207e-02,3.602679999999999771e-02,5.495599999999999097e-02
2.617999999999999234e-03,2.399999999999999790e-03,2.469999999999999540e-03,2.410000000000000250e-03,2.479999999999999566e-03,2.399999999999999790e-03,2.469999999999999540e-03,2.194240000000000079e-02,3.119999999999999944e-03,2.588799999999999608e-03
3.961600000000000017e-03,6.934000000000000059e-03,3.028399999999999669e-03,2.449999999999999921e-03,2.499999999999999618e-03,2.399999999999999790e-03,2.549599999999999957e-03,2.104119999999999949e-02,9.130799999999999680e-03,9.937199999999998465e-03
3.418319999999999692e-02,4.887160000000000393e-01,2.719039999999999999e-02,2.549199999999999730e-03,2.479999999999999566e-03,2.469199999999999954e-03,1.211880000000000075e-02,3.183720000000000300e-02,2.114775999999999878e-01,3.139040000000000163e-01
2.627999999999999694e-03,2.410000000000000250e-03,2.549999999999999750e-03,2.410000000000000250e-03,2.489999999999999592e-03,2.399999999999999790e-03,2.588799999999999608e-03,2.503279999999999741e-02,2.637200000000000134e-03,2.419999999999999842e-03
2.638799999999999740e-03,2.439999999999999461e-03,2.519999999999999671e-03,2.410000000000000250e-03,2.519999999999999671e-03,2.410000000000000250e-03,2.410000000000000250e-03,1.933159999999999740e-02,3.592000000000000141e-03,2.549199999999999730e-03
3.383120000000000571e-02,4.534224000000000032e-01,7.112759999999998528e-02,2.666799999999999553e-03,2.569999999999999368e-03,2.831999999999999882e-03,1.520080000000000042e-02,5.113880000000000509e-02,2.979744000000000836e-01,2.443816000000000321e-01
1.404399999999999919e-02,1.204748000000000069e-01,4.276439999999998715e-02,2.429999999999999868e-03,2.509999999999999645e-03,2.399999999999999790e-03,1.037800000000000007e-02,6.285880000000000634e-02,1.591968000000000272e-01,7.732879999999998921e-02
2.746799999999999329e-03,2.419999999999999842e-03,2.529999999999999263e-03,2.429999999999999868e-03,2.499999999999999618e-03,2.410000000000000250e-03,2.429999999999999868e-03,2.936560000000000212e-02,2.756000000000000203e-03,2.548799999999999503e-03
7.771999999999999395e-03,1.080375999999999836e-01,1.408440000000000213e-02,2.439999999999999461e-03,2.479999999999999566e-03,2.419999999999999842e-03,4.360799999999999746e-03,2.192920000000000286e-02,9.744399999999998896e-02,7.072159999999999558e-02
9.801200000000001231e-03,1.698940000000000450e-01,6.375199999999999270e-03,2.419999999999999842e-03,2.489999999999999158e-03,2.399999999999999790e-03,2.873599999999999592e-03,3.023559999999999789e-02,8.045240000000000724e-02,4.205199999999999910e-02
2.775600000000000029e-03,2.410000000000000250e-03,3.067599999999999754e-03,2.439999999999999461e-03,2.489999999999999158e-03,2.410000000000000250e-03,2.932399999999999504e-03,2.005559999999999982e-02,3.649200000000000013e-03,3.246799999999999773e-03
3.000800000000000082e-03,3.494799999999999730e-03,2.499599999999999392e-03,2.410000000000000250e-03,2.459999999999999513e-03,2.399999999999999790e-03,3.208399999999999707e-03,2.634919999999999971e-02,2.558399999999999737e-03,6.719999999999998544e-03
1.819679999999999909e-02,3.463960000000000372e-01,1.633400000000000130e-02,2.410000000000000250e-03,2.499999999999999618e-03,2.399999999999999790e-03,9.666799999999999699e-03,2.396200000000000066e-02,1.731564000000000159e-01,2.104883999999999922e-01
2.549199999999999730e-03,2.410000000000000250e-03,2.519999999999999671e-03,2.459999999999999513e-03,2.429999999999999868e-03,2.399999999999999790e-03,2.479599999999999773e-03,2.120079999999999881e-02,2.606799999999999829e-03,2.509999999999999645e-03
2.913999999999999490e-03,2.399999999999999790e-03,2.529999999999999263e-03,2.419999999999999842e-03,2.479999999999999566e-03,2.399999999999999790e-03,2.499600000000000259e-03,2.219239999999999755e-02,3.108799999999999671e-03,2.725599999999999464e-03
9.749600000000000627e-03,2.861507999999999829e-01,4.159599999999999409e-03,2.449999999999999921e-03,2.519999999999999671e-03,2.399999999999999790e-03,5.697199999999999487e-03,2.064119999999999844e-02,1.184516000000000041e-01,1.883915999999999924e-01
4.315200000000000806e-03,4.834199999999998915e-02,5.130800000000000465e-03,2.576799999999999750e-03,2.449999999999999921e-03,2.410000000000000250e-03,6.197200000000000798e-03,2.504920000000000063e-02,2.448319999999998969e-02,2.395639999999999228e-02
2.871599999999999760e-03,2.410000000000000250e-03,2.479999999999999566e-03,2.410000000000000250e-03,2.439999999999999461e-03,2.419999999999999842e-03,2.864799999999999812e-03,2.437759999999999580e-02,2.873199999999999799e-03,2.824399999999999914e-03
4.128399999999999084e-03,3.685360000000000025e-02,6.353599999999999179e-03,2.419999999999999842e-03,2.559999999999999776e-03,2.399999999999999790e-03,2.999599999999998969e-03,3.272440000000000071e-02,3.686919999999999781e-02,1.885999999999999829e-02
2.236799999999999899e-02,1.902811999999999837e-01,4.785640000000000727e-02,2.932799999999999730e-03,3.627199999999999695e-03,2.419999999999999842e-03,8.949999999999999623e-03,6.873240000000001293e-02,2.697847999999999913e-01,5.034040000000000042e-02
7.398400000000000289e-03,2.409479999999999608e-02,3.417239999999999861e-02,2.459199999999999928e-03,2.489999999999999158e-03,2.557999999999999944e-03,9.656040000000001844e-02,7.099520000000000830e-02,9.926399999999999113e-02,3.226160000000000139e-02
2.884799999999999431e-03,2.410000000000000250e-03,3.136399999999999692e-03,2.419999999999999842e-03,2.449999999999999487e-03,2.410000000000000250e-03,6.383600000000000559e-03,3.454039999999999888e-02,5.605599999999999646e-03,1.162320000000000020e-02
2.965920000000000362e-02,1.134235999999999994e-01,1.236323999999999895e-01,4.027479999999999949e-02,3.435200000000000232e-03,2.410000000000000250e-03,2.487920000000000062e-02,9.622120000000000672e-02,2.774904000000000259e-01,6.220719999999999722e-02
1.482280000000000056e-02,4.152000000000000308e-03,7.653640000000000443e-02,3.288119999999999932e-02,2.449999999999999921e-03,2.625999999999999428e-03,5.621360000000000245e-02,8.386440000000000561e-02,9.906280000000000641e-02,2.977279999999999857e-02
3.995199999999999967e-03,2.399999999999999790e-03,1.402200000000000148e-02,3.634399999999999437e-03,2.499999999999999618e-03,2.410000000000000250e-03,9.357999999999999999e-03,5.414680000000000187e-02,2.382000000000000436e-02,7.818399999999999656e-03
9.026799999999999755e-03,6.792360000000000064e-02,3.082959999999999520e-02,7.324000000000000649e-03,2.539199999999999704e-03,2.399999999999999790e-03,3.963999999999999642e-03,6.276560000000000472e-02,9.570120000000000016e-02,1.413080000000000065e-02
1.153039999999999968e-02,1.243920000000000269e-02,8.076279999999999570e-02,3.897239999999999732e-02,2.529999999999999263e-03,2.410000000000000250e-03,6.317999999999999831e-03,7.490239999999999398e-02,1.068551999999999974e-01,2.092599999999999669e-02
5.533599999999999630e-03,2.399999999999999790e-03,2.890840000000000423e-02,1.826120000000000174e-02,2.519999999999999671e-03,2.399999999999999790e-03,6.436320000000000929e-02,7.205040000000000056e-02,3.664359999999999840e-02,1.405239999999999788e-02
3.032799999999999992e-03,2.399999999999999790e-03,2.637599999999999494e-03,2.762799999999999284e-03,2.500000000000000052e-03,2.399999999999999790e-03,1.117320000000000119e-02,5.998000000000000553e-02,4.997600000000000479e-03,6.682400000000000666e-03
1.370880000000000015e-02,3.006799999999999577e-03,4.574999999999999206e-02,2.096519999999999981e-02,2.628799999999999713e-03,2.410000000000000250e-03,1.192840000000000046e-02,9.128680000000000128e-02,1.249019999999999991e-01,2.808439999999999895e-02
7.572400000000000832e-03,2.399999999999999790e-03,3.746080000000000937e-02,1.529720000000000038e-02,2.489999999999999158e-03,2.783199999999999997e-03,8.834719999999998685e-02,7.200199999999999656e-02,5.064400000000000845e-02,1.668599999999999944e-02
3.429599999999999663e-03,2.399999999999999790e-03,2.489999999999999158e-03,2.399999999999999790e-03,2.479999999999999566e-03,2.399999999999999790e-03,1.004640000000000220e-02,5.283119999999999483e-02,3.627599999999999922e-03,7.125600000000000163e-03
1.701800000000000188e-02,7.441359999999999641e-02,8.630599999999999383e-02,3.534280000000000060e-02,3.151199999999999401e-03,2.399999999999999790e-03,3.801759999999999862e-02,9.117200000000000304e-02,1.695579999999999865e-01,3.228840000000000182e-02
1.400199999999999882e-02,4.279600000000000591e-03,9.501120000000000398e-02,3.315959999999999741e-02,2.589199999999999835e-03,2.419999999999999842e-03,4.762640000000000623e-02,9.052639999999999298e-02,1.057968000000000103e-01,2.524120000000000530e-02
4.398000000000000000e-03,2.399999999999999790e-03,5.120320000000000427e-02,1.327680000000000179e-02,2.519999999999999671e-03,2.390399999999999556e-03,7.063999999999999967e-03,5.263160000000000061e-02,3.589319999999999317e-02,9.749999999999999986e-03
9.134800000000000211e-03,9.633999999999998468e-03,7.629679999999998408e-02,3.699759999999999854e-02,2.539999999999999723e-03,2.399999999999999790e-03,5.215999999999999283e-03,7.531079999999999719e-02,9.922159999999999314e-02,1.642520000000000091e-02
1.693520000000000095e-02,2.509599999999999852e-03,5.593479999999999980e-02,4.274559999999999471e-02,2.529999999999999263e-03,2.419999999999999842e-03,1.211480000000000196e-02,1.085535999999999862e-01,8.001359999999999029e-02,1.815479999999999872e-02
4.916000000000000231e-03,2.419999999999999842e-03,1.450920000000000161e-02,4.016399999999998964e-03,2.509999999999999645e-03,2.399999999999999790e-03,1.082479999999999901e-02,6.145559999999999912e-02,6.810800000000000534e-03,5.611599999999999575e-03
3.985599999999999733e-03,2.399999999999999790e-03,9.383600000000000621e-03,6.736799999999999386e-03,2.529999999999999263e-03,2.399999999999999790e-03,1.173519999999999945e-02,6.166039999999999716e-02,1.546440000000000314e-02,2.155080000000000190e-02
3.430039999999999478e-02,1.918440000000000076e-02,8.395479999999999610e-02,4.625839999999999119e-02,1.032600000000000011e-02,2.439999999999999461e-03,3.134040000000000437e-02,1.358648000000000078e-01,1.456331999999999904e-01,3.398519999999999319e-02
7.696400000000000810e-03,2.419999999999999842e-03,3.189600000000000074e-02,1.916879999999999626e-02,2.469999999999999540e-03,2.399999999999999790e-03,6.524120000000001307e-02,9.194879999999999720e-02,7.471200000000001624e-03,1.793959999999999999e-02
4.055199999999999257e-03,2.410000000000000250e-03,5.316800000000000866e-03,4.377999999999999947e-03,2.519999999999999671e-03,2.429999999999999868e-03,2.015919999999999865e-02,6.823400000000000298e-02,2.527999999999999432e-03,4.829199999999999639e-03
2.260320000000000037e-02,2.368280000000000038e-02,4.265079999999999566e-02,2.600279999999999953e-02,7.771999999999999395e-03,2.449599999999999694e-03,4.193240000000000162e-02,1.190059999999999868e-01,8.377880000000001437e-02,2.261199999999999322e-02
1.946840000000000029e-02,2.509200000000000059e-03,4.207159999999999372e-02,2.529439999999999814e-02,2.519599999999999444e-03,2.410000000000000250e-03,3.747080000000000549e-02,1.218144000000000032e-01,5.982359999999999067e-02,2.301639999999999936e-02
3.957199999999999260e-03,2.410000000000000250e-03,2.469999999999999540e-03,2.419999999999999842e-03,2.519999999999999671e-03,2.399999999999999790e-03,1.883920000000000039e-02,6.824159999999999948e-02,2.399999999999999790e-03,6.253199999999999557e-03
5.150799999999999650e-03,2.399999999999999790e-03,2.902399999999999858e-03,2.419999999999999842e-03,2.469999999999999540e-03,2.429999999999999868e-03,3.437199999999999631e-03,6.682760000000000089e-02,8.765200000000000768e-03,5.422399999999999963e-03
1.836359999999999729e-02,3.009200000000000069e-03,1.892480000000000204e-02,2.488799999999999346e-03,2.746399999999999536e-03,2.399999999999999790e-03,9.975999999999998757e-03,1.098739999999999994e-01,9.973200000000000121e-02,1.404880000000000018e-02
7.577200000000000081e-03,3.435999999999999818e-03,4.095600000000000455e-03,2.654799999999999695e-03,2.459999999999999513e-03,2.498800000000000240e-03,8.593800000000000050e-02,9.312720000000000720e-02,4.026399999999999424e-03,3.082359999999999961e-02
3.495999999999999542e-03,2.410000000000000250e-03,2.529999999999999263e-03,2.419999999999999842e-03,2.499999999999999618e-03,2.399999999999999790e-03,1.465800000000000089e-02,6.948759999999999659e-02,2.969199999999999964e-03,7.096800000000000330e-03
2.640280000000000404e-02,3.832799999999999922e-03,2.778400000000000314e-02,4.576799999999999792e-03,4.568000000000000012e-03,2.410000000000000250e-03,2.882480000000000112e-02,1.426351999999999898e-01,1.178580000000000044e-01,2.816839999999999969e-02
8.843199999999998978e-03,6.799999999999998754e-03,2.862879999999999939e-02,3.997200000000000232e-03,2.489999999999999158e-03,2.557999999999999944e-03,1.036851999999999774e-01,1.079600000000000143e-01,3.887719999999999371e-02,3.735639999999999100e-02
3.798000000000000161e-03,2.419999999999999842e-03,2.499999999999999618e-03,2.429999999999999868e-03,2.559999999999999776e-03,2.410000000000000250e-03,2.915840000000000445e-02,6.646479999999999055e-02,2.596400000000000010e-03,9.599599999999999800e-03
6.327800000000000091e-02,2.967151999999999568e-01,1.622412000000000021e-01,3.560200000000000170e-02,7.679999999999998460e-03,1.992160000000000111e-02,6.810727999999999227e-01,2.665235999999999716e-01,2.230343999999999938e-01,9.280160000000001186e-02
5.830279999999999491e-02,2.422483999999999749e-01,1.421604000000000201e-01,2.588680000000000148e-02,5.087200000000000055e-03,2.119399999999999756e-02,6.727712000000000137e-01,2.595663999999999749e-01,2.185020000000000018e-01,7.534960000000000269e-02
5.821200000000001200e-03,2.399999999999999790e-03,2.725599999999999464e-03,2.429999999999999868e-03,2.539999999999999723e-03,2.399999999999999790e-03,6.658400000000000082e-03,7.691439999999999388e-02,4.344800000000000224e-03,7.498400000000000551e-03
3.856879999999999337e-02,1.777379999999999793e-01,7.749559999999999782e-02,1.918440000000000423e-02,6.062800000000001001e-03,1.306479999999999968e-02,3.671055999999999764e-01,1.544988000000000195e-01,1.031368000000000007e-01,4.004279999999999645e-02
1.298971999999999904e-01,5.783171999999999757e-01,2.037008000000000152e-01,4.346800000000000663e-02,2.829560000000000061e-02,7.028679999999999650e-02,1.500239199999999995e+00,4.463567999999999980e-01,3.088083999999999829e-01,1.328016000000000196e-01
5.885599999999999513e-03,2.399999999999999790e-03,2.883199999999999392e-03,2.419999999999999842e-03,2.499999999999999618e-03,2.410000000000000250e-03,3.555080000000000046e-02,7.198160000000000669e-02,4.046400000000000344e-03,1.310880000000000031e-02
3.740400000000000062e-03,2.399999999999999790e-03,2.539999999999999723e-03,2.429999999999999868e-03,2.499999999999999618e-03,2.410000000000000250e-03,2.460479999999999612e-02,6.590880000000000349e-02,3.293599999999999826e-03,1.290520000000000035e-02
1.641555999999999849e-01,7.778376000000000179e-01,3.321163999999999783e-01,7.105639999999999179e-02,4.310079999999999467e-02,8.665079999999998617e-02,1.697663200000000039e+00,5.495008000000000115e-01,4.977688000000000668e-01,1.922940000000000205e-01
1.345800000000000121e-02,6.294639999999999957e-02,4.699519999999998698e-02,2.745999999999999743e-03,2.499999999999999618e-03,3.665199999999999535e-03,1.302276000000000267e-01,8.763959999999999806e-02,9.372800000000000575e-02,3.463359999999999356e-02
7.751320000000000432e-02,3.417599999999999805e-03,2.499999999999999618e-03,2.439999999999999461e-03,2.509999999999999645e-03,2.399999999999999790e-03,1.201720000000000045e-02,7.757000000000000006e-02,2.399999999999999790e-03,1.535719999999999967e-02
9.235079999999999678e-02,3.400987999999999789e-01,2.901307999999999665e-01,1.941640000000000033e-02,1.327079999999999926e-02,2.127439999999999887e-02,4.707859999999999823e-01,4.538956000000000102e-01,2.790759999999999907e-01,5.564000000000000196e-02
1.718760000000000079e-02,7.669280000000001929e-02,8.252840000000000176e-02,2.537599999999999665e-03,2.569199999999999349e-03,2.429999999999999868e-03,8.601480000000000237e-02,1.541020000000000167e-01,9.838759999999999173e-02,2.067959999999999937e-02
3.217599999999999714e-03,2.410000000000000250e-03,2.479999999999999566e-03,2.399999999999999790e-03,2.489999999999999158e-03,2.399999999999999790e-03,3.296400000000000111e-03,4.833799999999999208e-02,2.498400000000000013e-03,4.685199999999999608e-03
2.544520000000000462e-02,1.606372000000000355e-01,3.326679999999999915e-02,6.153600000000000389e-03,5.881199999999999622e-03,1.323799999999999977e-02,4.282104000000000465e-01,1.007623999999999881e-01,9.491479999999999362e-02,2.341640000000000388e-02
2.407172000000000200e-01,8.040851999999999444e-01,1.960688000000000153e-01,6.335880000000000678e-02,6.851600000000000745e-02,1.613708000000000364e-01,2.075339599999999951e+00,4.928907999999999623e-01,3.418831999999999982e-01,2.545815999999999635e-01
2.419999999999999842e-03,2.399999999999999790e-03,2.529999999999999263e-03,2.410000000000000250e-03,2.509999999999999645e-03,2.399999999999999790e-03,4.276799999999999873e-03,2.677080000000000085e-02,2.410000000000000250e-03,1.263440000000000049e-02
8.944399999999999920e-03,2.399999999999999790e-03,2.479999999999999566e-03,2.410000000000000250e-03,2.479999999999999566e-03,2.410000000000000250e-03,4.755999999999999811e-03,2.766559999999999853e-02,2.410000000000000250e-03,1.659520000000000092e-02
1.859824000000000199e-01,9.072419999999999929e-01,3.297339999999999716e-01,6.912039999999999851e-02,5.674519999999999564e-02,1.443468000000000251e-01,2.481052800000000058e+00,4.835171999999999803e-01,4.907275999999999860e-01,1.892651999999999946e-01
2.902800000000000085e-03,3.846800000000000479e-03,4.357599999999999668e-03,2.459999999999999513e-03,2.459999999999999513e-03,2.429599999999999642e-03,2.898279999999999260e-02,2.642240000000000213e-02,1.558200000000000383e-02,1.755199999999999816e-02
2.832799999999999901e-03,2.399999999999999790e-03,2.499999999999999618e-03,2.419999999999999842e-03,2.529999999999999263e-03,2.547999999999999918e-03,3.279199999999999476e-03,3.422039999999999804e-02,2.399999999999999790e-03,1.394199999999999780e-02
7.027760000000000951e-02,3.889672000000000129e-01,1.582375999999999783e-01,2.188119999999999996e-02,1.439799999999999934e-02,4.709879999999999622e-02,1.254912000000000027e+00,2.426136000000000403e-01,1.776667999999999858e-01,7.050279999999999048e-02
4.081039999999999668e-02,2.302319999999999645e-01,6.108919999999998934e-02,6.609600000000002799e-03,6.610000000000003026e-03,2.509039999999999188e-02,7.279791999999999375e-01,1.373720000000000219e-01,1.113468000000000097e-01,4.773440000000000322e-02
2.529999999999999697e-03,2.399999999999999790e-03,2.529999999999999263e-03,2.410000000000000250e-03,2.479999999999999566e-03,2.410000000000000250e-03,2.565200000000000119e-02,3.197479999999999767e-02,2.449199999999999901e-03,1.512079999999999848e-02
1.188200000000000020e-02,6.556120000000000003e-02,4.720279999999999615e-02,4.854799999999999394e-03,2.539599999999999497e-03,3.969199999999999985e-03,2.598547999999999969e-01,7.051560000000001160e-02,5.659640000000000504e-02,2.118719999999999631e-02
1.125524000000000108e-01,5.210387999999999131e-01,2.918604000000000198e-01,2.616800000000000029e-02,1.855719999999999939e-02,6.522640000000000382e-02,1.678163199999999966e+00,3.450023999999999869e-01,4.412892000000000481e-01,9.634440000000001059e-02
2.726000000000000124e-03,2.390399999999999556e-03,2.608799999999999661e-03,2.429999999999999868e-03,2.479999999999999566e-03,2.399999999999999790e-03,4.246399999999999134e-03,2.802479999999999902e-02,4.720399999999999596e-03,1.203040000000000012e-02
2.559199999999999756e-03,2.419999999999999842e-03,2.529999999999999263e-03,2.419999999999999842e-03,2.509999999999999645e-03,2.419999999999999842e-03,2.785199999999999829e-03,2.777360000000000245e-02,2.410000000000000250e-03,9.236400000000000513e-03
1.086363999999999941e-01,6.045855999999999453e-01,2.380795999999999746e-01,3.041839999999999822e-02,2.635840000000000405e-02,7.338400000000001866e-02,1.789985200000000276e+00,3.509175999999999407e-01,3.373160000000000047e-01,1.003023999999999999e-01
2.337479999999999419e-02,1.272843999999999920e-01,4.958880000000000232e-02,3.714000000000000287e-03,4.458399999999999516e-03,1.475320000000000277e-02,4.373999999999999555e-01,1.155376000000000042e-01,1.030628000000000100e-01,4.081599999999999812e-02
2.499999999999999618e-03,2.399999999999999790e-03,2.549999999999999750e-03,2.429999999999999868e-03,2.489999999999999158e-03,2.410000000000000250e-03,2.888960000000000139e-02,3.556600000000000039e-02,3.266400000000000033e-03,1.713479999999999864e-02
2.946119999999999642e-02,2.378035999999999761e-01,1.441791999999999796e-01,3.547999999999999939e-03,3.156399999999999744e-03,1.405519999999999686e-02,6.652160000000000295e-01,1.360351999999999950e-01,1.855979999999999852e-01,3.763079999999999897e-02
8.804399999999999726e-02,5.711292000000001146e-01,2.800284000000000106e-01,2.656519999999999715e-02,2.234839999999999396e-02,6.313280000000000280e-02,1.429137599999999786e+00,3.053223999999999938e-01,4.268104000000000897e-01,9.046959999999999724e-02
3.080000000000000272e-03,3.544800000000000294e-03,2.914359999999999173e-02,2.399999999999999790e-03,2.509999999999999645e-03,2.399999999999999790e-03,2.914920000000000011e-02,4.054520000000000346e-02,4.341719999999999607e-02,2.372880000000000128e-02
1.036439999999999931e-02,5.490400000000000315e-03,2.796839999999999743e-02,6.672399999999999338e-03,2.489999999999999158e-03,3.381999999999999590e-03,2.291771999999999976e-01,8.220679999999998266e-02,1.229563999999999935e-01,2.660160000000000649e-02
1.016871999999999915e-01,8.657360000000000055e-02,2.421512000000000109e-01,9.183759999999999146e-02,3.757600000000000263e-03,1.813920000000000116e-02,1.056210800000000116e+00,3.693983999999999601e-01,4.668075999999999892e-01,8.509439999999998672e-02
4.442079999999998946e-02,6.409000000000002195e-02,1.908491999999999966e-01,3.500559999999999783e-02,2.499999999999999618e-03,3.116799999999999432e-03,1.060512000000000121e-01,1.756351999999999913e-01,2.493259999999999921e-01,4.886879999999999696e-02
6.682800000000000025e-03,2.410000000000000250e-03,2.902000000000000066e-03,2.410000000000000250e-03,2.519999999999999671e-03,2.439999999999999461e-03,1.126063999999999954e-01,7.464920000000001277e-02,1.593200000000000172e-02,4.228719999999999701e-02
6.685439999999999439e-02,4.213919999999999472e-02,1.659488000000000074e-01,8.692719999999999614e-02,6.248799999999999667e-03,1.511720000000000078e-02,7.906436000000001130e-01,2.911815999999999849e-01,4.213548000000000848e-01,7.162319999999999798e-02
8.030079999999999163e-02,2.842399999999999701e-03,1.229616000000000042e-01,4.122959999999999819e-02,2.529999999999999263e-03,2.439999999999999461e-03,5.231039999999999301e-02,1.821964000000000361e-01,7.985399999999999443e-02,2.406559999999999949e-02
2.961920000000000178e-02,2.399999999999999790e-03,2.539999999999999723e-03,2.419999999999999842e-03,2.469999999999999540e-03,2.429999999999999868e-03,3.672279999999999989e-02,1.078624000000000110e-01,3.711200000000000002e-03,1.649959999999999968e-02
5.119199999999999445e-02,3.318360000000000753e-02,1.046460000000000029e-01,4.955360000000000320e-02,6.532399999999998971e-03,1.200440000000000014e-02,5.460527999999998938e-01,2.607215999999999978e-01,3.523035999999999945e-01,5.593760000000000399e-02
3.844240000000000157e-02,1.949199999999999891e-02,1.080699999999999994e-01,5.353960000000000663e-02,4.448799999999999283e-03,6.922000000000003671e-03,4.057891999999999610e-01,2.269328000000000456e-01,1.855660000000000087e-01,5.541240000000000054e-02
5.553600000000000550e-03,2.410000000000000250e-03,2.509999999999999645e-03,2.399999999999999790e-03,2.519999999999999671e-03,2.399999999999999790e-03,1.493947999999999943e-01,1.016399999999999804e-01,2.940799999999999491e-03,2.634400000000000283e-02
9.318000000000001629e-03,2.626399999999999655e-03,1.079519999999999785e-02,6.653599999999999966e-03,2.539999999999999723e-03,3.116399999999999639e-03,2.933111999999999941e-01,1.229027999999999787e-01,6.354440000000000088e-02,2.179200000000000234e-02
5.751439999999999331e-02,2.489040000000000002e-02,1.023932000000000037e-01,7.075719999999999232e-02,3.733999999999999472e-03,1.147320000000000284e-02,7.729012000000000659e-01,2.791408000000000222e-01,3.862152000000000363e-01,8.365640000000000576e-02
7.708800000000000027e-03,3.143599999999999433e-03,2.580800000000000108e-02,1.579240000000000158e-02,2.459999999999999513e-03,2.429999999999999868e-03,3.368664000000000658e-01,1.251379999999999992e-01,4.099600000000000986e-03,3.540000000000000091e-02
4.172799999999999947e-03,2.419999999999999842e-03,5.932800000000001961e-03,2.588000000000000023e-03,2.479999999999999566e-03,2.399999999999999790e-03,2.892303999999999986e-01,9.655360000000000331e-02,5.063200000000000339e-03,2.850520000000000137e-02
5.497439999999999966e-02,2.589719999999999869e-02,1.169252000000000069e-01,6.513639999999999708e-02,3.002799999999999480e-03,1.445679999999999882e-02,9.221576000000000217e-01,3.038475999999999955e-01,4.654059999999999864e-01,8.977760000000001295e-02
9.404799999999999618e-03,2.419999999999999842e-03,2.186639999999999764e-02,1.715520000000000239e-02,2.529999999999999263e-03,2.450000000000000355e-03,3.847459999999999769e-01,1.242967999999999851e-01,3.147559999999999247e-02,5.544879999999999254e-02
3.735199999999999718e-03,2.429999999999999868e-03,2.509999999999999645e-03,2.419999999999999842e-03,2.499999999999999618e-03,2.399999999999999790e-03,2.279523999999999717e-01,9.031959999999999988e-02,2.940799999999999925e-03,3.463719999999999299e-02
2.018920000000000090e-02,1.561159999999999978e-02,3.668000000000000427e-02,1.808239999999999847e-02,2.912799999999999678e-03,5.788800000000000195e-03,5.099811999999999124e-01,1.555971999999999911e-01,2.179323999999999983e-01,5.169280000000000402e-02
4.941919999999999646e-02,2.633879999999999555e-02,9.930040000000001088e-02,5.989039999999999642e-02,4.195199999999999624e-03,1.262120000000000256e-02,7.310840000000000671e-01,2.571244000000000307e-01,2.753039999999999932e-01,8.610239999999999561e-02
3.905199999999999731e-03,2.399999999999999790e-03,6.030000000000003239e-03,5.305200000000002102e-03,2.459999999999999513e-03,2.469599999999999747e-03,2.543168000000000095e-01,1.013283999999999990e-01,2.518799999999999858e-03,4.336159999999999320e-02
5.292400000000000923e-03,2.399999999999999790e-03,3.908800000000000469e-03,4.142399999999999208e-03,2.479999999999999566e-03,2.508799999999999832e-03,2.973651999999999407e-01,1.156135999999999969e-01,3.542759999999999659e-02,4.263720000000000010e-02
6.312399999999999956e-02,3.246560000000000418e-02,1.272551999999999850e-01,6.604119999999999435e-02,3.093599999999999302e-03,1.276760000000000048e-02,9.675084000000000461e-01,3.468647999999999731e-01,4.295996000000000259e-01,1.325092000000000214e-01
7.899200000000000318e-03,2.399999999999999790e-03,2.482159999999999922e-02,1.791039999999999993e-02,2.479999999999999566e-03,2.429999999999999868e-03,3.909583999999999837e-01,1.250099999999999822e-01,3.653199999999999677e-03,7.443199999999998429e-02
4.446800000000000752e-03,2.410000000000000250e-03,4.456799999999999477e-03,2.498400000000000013e-03,2.499999999999999618e-03,2.399999999999999790e-03,2.645448000000000244e-01,1.042571999999999943e-01,2.399999999999999790e-03,4.175839999999999413e-02
3.081600000000000311e-02,1.594320000000000112e-02,7.480639999999999512e-02,4.014759999999999857e-02,2.726799999999999710e-03,1.028160000000000011e-02,7.526503999999999417e-01,2.469651999999999681e-01,2.769443999999999795e-01,8.604080000000000061e-02
1.291200000000000160e-02,2.801999999999999803e-03,2.596999999999999656e-02,1.789160000000000056e-02,2.449999999999999487e-03,2.589600000000000062e-03,5.217496000000000356e-01,1.546068000000000164e-01,4.949639999999999596e-02,6.902959999999999652e-02
4.448000000000000564e-03,2.399999999999999790e-03,3.887999999999999963e-03,2.410000000000000250e-03,2.479999999999999566e-03,2.399999999999999790e-03,3.126099999999999990e-01,1.148751999999999968e-01,2.399999999999999790e-03,5.720000000000000084e-02
7.916400000000000520e-03,2.987999999999999337e-03,5.578799999999999211e-03,3.143600000000000300e-03,2.469999999999999540e-03,2.890399999999999567e-03,3.278547999999999463e-01,1.178191999999999989e-01,2.947239999999999582e-02,5.476519999999999999e-02
2.864519999999999567e-02,1.213440000000000352e-02,4.747119999999999812e-02,2.090679999999999622e-02,2.578799999999999149e-03,6.591600000000001278e-03,7.600184000000000939e-01,2.186415999999999915e-01,1.965832000000000135e-01,8.548159999999999092e-02
5.228000000000000008e-03,2.399999999999999790e-03,4.249999999999999438e-03,2.518399999999999632e-03,2.499999999999999618e-03,2.410000000000000250e-03,3.183491999999999988e-01,1.158191999999999972e-01,3.919599999999999647e-03,5.528280000000000000e-02
3.972399999999999196e-03,2.410000000000000250e-03,3.888799999999999115e-03,2.792799999999999797e-03,2.489999999999999158e-03,2.439999999999999461e-03,2.864847999999999839e-01,1.109196000000000071e-01,8.927199999999999719e-03,4.337919999999999970e-02
6.320280000000000342e-02,3.237280000000000019e-02,1.053824000000000011e-01,6.201919999999999655e-02,4.145199999999999926e-03,1.835440000000000335e-02,1.067665599999999770e+00,3.550116000000000382e-01,3.938191999999999804e-01,1.355876000000000026e-01
7.170800000000000611e-03,2.419999999999999842e-03,1.304680000000000076e-02,9.997600000000002318e-03,2.459999999999999947e-03,2.617599999999999441e-03,5.104687999999999448e-01,1.358704000000000300e-01,2.429999999999999868e-03,7.040079999999999949e-02
3.651199999999999845e-03,2.410000000000000250e-03,2.519999999999999671e-03,2.419999999999999842e-03,2.539999999999999723e-03,2.399999999999999790e-03,3.575112000000000290e-01,1.076375999999999861e-01,2.399999999999999790e-03,4.442360000000000059e-02
4.119039999999999507e-02,1.653436000000000072e-01,1.370127999999999902e-01,4.843559999999999532e-02,5.378399999999999327e-03,2.277840000000000420e-02,7.918643999999999128e-01,2.283588000000000007e-01,1.275484000000000062e-01,1.095331999999999972e-01
4.682799999999999463e-02,1.100616000000000094e-01,1.517240000000000255e-01,6.254119999999999124e-02,4.489200000000000482e-03,4.928400000000000315e-03,2.748727999999999727e-01,2.456240000000000090e-01,1.405631999999999993e-01,9.285839999999999372e-02
2.737199999999999529e-03,2.399999999999999790e-03,2.479999999999999566e-03,2.419999999999999842e-03,2.469999999999999540e-03,2.399999999999999790e-03,3.003599999999999499e-03,5.594640000000000030e-02,2.410000000000000250e-03,1.975439999999999835e-02
1.215000000000000108e-02,6.084320000000000006e-02,5.654719999999999885e-02,2.411240000000000605e-02,3.283200000000000007e-03,2.675599999999999767e-03,5.768680000000000335e-02,1.125111999999999779e-01,6.273279999999999135e-02,7.289439999999998421e-02
4.446279999999999677e-02,1.351128000000000051e-01,1.267540000000000056e-01,5.107679999999999859e-02,2.892799999999999625e-03,3.147599999999999530e-03,1.576848000000000138e-01,2.201667999999999681e-01,1.875775999999999832e-01,1.227187999999999890e-01
2.666399999999999760e-03,2.399999999999999790e-03,2.499999999999999618e-03,2.429999999999999868e-03,2.529999999999999263e-03,2.399999999999999790e-03,5.120399999999999778e-03,5.605960000000000110e-02,2.399999999999999790e-03,1.002920000000000200e-02
2.687199999999999832e-03,2.399999999999999790e-03,2.569999999999999368e-03,2.429999999999999868e-03,2.519999999999999671e-03,2.399999999999999790e-03,8.792800000000003391e-03,4.714080000000000353e-02,2.429999999999999868e-03,1.016840000000000105e-02
1.268903999999999865e-01,3.936627999999999239e-01,2.831899999999999973e-01,1.061095999999999984e-01,9.963599999999999540e-03,7.490799999999998848e-03,4.560768000000000044e-01,2.360844000000000276e-01,2.327812000000000214e-01,3.687599999999999767e-01
8.410200000000001008e-02,1.133400000000000206e-02,9.382279999999999787e-02,9.904839999999998090e-02,2.657199999999999753e-03,2.587600000000000230e-03,8.079679999999998807e-02,1.739439999999999875e-01,2.967239999999999808e-02,3.363200000000000217e-02
1.862120000000000095e-02,2.399999999999999790e-03,9.665200000000002262e-03,2.670279999999999529e-02,2.638399999999999947e-03,2.399999999999999790e-03,1.702400000000000094e-02,9.703159999999999563e-02,5.115600000000001396e-03,1.996599999999999764e-02
6.096280000000001142e-02,2.287299999999999611e-01,1.679907999999999957e-01,6.726799999999998059e-02,7.645599999999998925e-03,6.366399999999999490e-03,3.142647999999999553e-01,1.816023999999999972e-01,1.729999999999999594e-01,2.586204000000000280e-01
3.330799999999999039e-02,1.098980000000000234e-01,7.551560000000001605e-02,2.497839999999999783e-02,2.549199999999999296e-03,2.459600000000000154e-03,1.498251999999999917e-01,1.119832000000000188e-01,1.044468000000000202e-01,1.110812000000000049e-01
2.807199999999999713e-03,2.410000000000000250e-03,2.479999999999999566e-03,2.419999999999999842e-03,2.489999999999999158e-03,2.399999999999999790e-03,5.926799999999999430e-03,4.341640000000000083e-02,2.399999999999999790e-03,6.666800000000000503e-03
2.766000000000000229e-03,2.399999999999999790e-03,3.714799999999999439e-03,2.743199999999999892e-03,2.479999999999999566e-03,2.399999999999999790e-03,7.227199999999999597e-03,5.025280000000000025e-02,6.202799999999999633e-03,7.701600000000001153e-03
4.639440000000000230e-02,2.972588000000000452e-01,1.379887999999999948e-01,6.402280000000000471e-02,3.903600000000000125e-03,3.559200000000000211e-03,2.643904000000000254e-01,1.899727999999999695e-01,2.096836000000000255e-01,2.582795999999999981e-01
2.529599999999999470e-03,2.410000000000000250e-03,2.489999999999999158e-03,2.410000000000000250e-03,2.469999999999999540e-03,2.410000000000000250e-03,4.602800000000000641e-03,3.665039999999999965e-02,2.399999999999999790e-03,8.855600000000001665e-03
2.598399999999999842e-03,2.399999999999999790e-03,2.549999999999999316e-03,2.410000000000000250e-03,2.519999999999999671e-03,2.419999999999999842e-03,6.622800000000000735e-03,4.084680000000000255e-02,2.410000000000000250e-03,6.821599999999999712e-03
4.921879999999999311e-02,2.714456000000000091e-01,9.715600000000000624e-02,4.302880000000000593e-02,2.697599999999999651e-03,2.676800000000000013e-03,2.059539999999999982e-01,1.438192000000000081e-01,1.610651999999999917e-01,2.471847999999999823e-01
7.694400000000000545e-03,2.499200000000000033e-03,8.865200000000001898e-03,4.690399999999999951e-03,2.469999999999999540e-03,2.399999999999999790e-03,4.544919999999999516e-02,4.944880000000000803e-02,1.669560000000000141e-02,3.468839999999999424e-02
2.874399999999999612e-03,2.429999999999999868e-03,2.469999999999999540e-03,2.419999999999999842e-03,2.449999999999999487e-03,2.399999999999999790e-03,6.088399999999999888e-03,3.793999999999999456e-02,2.410000000000000250e-03,7.093999999999999612e-03
2.479999999999999566e-03,2.410000000000000250e-03,2.499999999999999618e-03,2.439999999999999461e-03,2.469999999999999540e-03,2.390399999999999556e-03,1.253999999999999906e-02,3.974319999999999936e-02,2.399999999999999790e-03,7.046000000000000180e-03
1.446908000000000361e-01,6.263592000000000048e-01,3.275259999999999838e-01,9.117479999999998641e-02,1.920600000000000432e-02,1.749320000000000042e-02,6.998011999999999011e-01,3.412223999999999813e-01,4.528880000000000128e-01,4.740119999999999889e-01
4.253600000000000610e-03,6.592000000000003239e-03,7.786000000000002121e-03,3.525599999999999828e-03,2.539999999999999723e-03,2.399999999999999790e-03,7.142840000000001688e-02,5.695640000000000425e-02,1.738799999999999721e-02,9.967200000000000712e-03
1.147359999999999873e-02,2.839359999999999801e-02,1.325600000000000042e-02,5.901599999999999034e-03,2.459999999999999513e-03,2.399999999999999790e-03,5.141760000000000080e-02,6.009000000000000452e-02,2.802440000000000139e-02,2.956759999999999944e-02
1.060527999999999887e-01,3.111547999999999536e-01,1.985832000000000430e-01,5.937760000000000260e-02,3.160799999999999634e-03,2.923999999999999516e-03,3.176191999999999904e-01,1.657927999999999902e-01,1.655255999999999950e-01,3.625120000000000009e-01
4.540800000000000218e-03,2.410000000000000250e-03,2.509999999999999645e-03,2.410000000000000250e-03,2.489999999999999158e-03,2.399999999999999790e-03,3.860840000000000105e-02,5.992159999999999848e-02,3.594400000000000373e-02,1.398920000000000025e-02
2.637599999999999927e-03,2.399999999999999790e-03,2.529999999999999263e-03,2.429999999999999868e-03,2.529999999999999263e-03,2.399999999999999790e-03,5.035200000000000092e-03,5.144560000000000105e-02,2.399999999999999790e-03,3.935199999999999809e-03
6.779120000000000978e-02,5.615847999999999951e-01,1.660427999999999904e-01,5.022239999999999344e-02,7.395600000000000437e-03,6.056399999999999978e-03,4.716759999999999842e-01,1.834852000000000150e-01,2.764195999999999320e-01,4.800231999999999832e-01
3.503200000000000151e-03,2.566399999999999931e-03,2.539999999999999723e-03,2.449999999999999921e-03,2.479999999999999566e-03,2.399999999999999790e-03,3.154039999999999622e-02,6.411159999999999082e-02,2.660119999999998805e-02,1.092839999999999957e-02
2.617599999999999441e-03,2.410000000000000250e-03,2.499999999999999618e-03,2.399999999999999790e-03,2.479999999999999566e-03,2.410000000000000250e-03,4.671599999999999711e-03,5.250159999999999549e-02,2.410000000000000250e-03,5.239600000000000507e-03
6.577560000000000351e-02,3.175355999999999734e-01,9.274120000000000974e-02,2.877720000000000278e-02,4.879599999999998695e-03,3.315599999999999711e-03,2.334823999999999788e-01,1.234695999999999849e-01,1.668744000000000061e-01,2.718396000000000146e-01
6.780760000000000953e-02,3.309140000000000414e-01,9.236199999999999966e-02,2.520679999999999102e-02,3.821999999999999877e-03,3.698799999999999484e-03,3.671459999999999724e-01,1.479564000000000157e-01,1.963791999999999760e-01,2.536932000000000076e-01
6.265599999999998775e-03,2.410000000000000250e-03,2.489999999999999158e-03,2.399999999999999790e-03,2.439999999999999461e-03,2.410000000000000250e-03,5.163199999999999734e-03,5.424439999999999817e-02,6.232399999999999919e-03,3.857999999999999451e-03
4.068799999999999153e-03,2.703199999999999787e-03,2.509999999999999645e-03,2.429999999999999868e-03,2.509999999999999645e-03,2.399999999999999790e-03,4.593999999999999126e-03,5.145839999999999442e-02,7.482399999999999295e-03,7.434399999999999863e-03
6.528215999999998909e-01,3.188047999999999993e-01,2.947595999999999550e-01,1.036939999999999945e-01,1.544119999999999868e-02,4.739599999999999196e-03,2.792971999999999677e-01,1.717947999999999975e-01,1.565403999999999685e-01,2.728147999999999684e-01
4.178439999999999238e-02,5.860800000000000211e-03,2.569199999999999349e-03,2.399999999999999790e-03,2.469999999999999540e-03,2.635600000000000095e-03,1.527348000000000039e-01,7.000319999999998766e-02,1.462560000000000249e-02,6.895999999999999353e-02
4.484799999999999724e-03,2.399999999999999790e-03,2.469999999999999540e-03,2.410000000000000250e-03,2.529999999999999263e-03,2.410000000000000250e-03,7.970920000000000782e-02,5.683160000000000295e-02,2.410000000000000250e-03,2.698200000000000251e-02
2.486724000000000157e-01,1.024264000000000008e-01,1.278748000000000107e-01,5.261559999999999848e-02,4.791999999999999385e-03,3.392400000000000276e-03,2.403236000000000261e-01,1.264248000000000038e-01,7.132280000000000564e-02,2.070115999999999901e-01
2.839659999999999962e-01,3.827199999999999352e-02,4.861399999999999055e-02,2.266439999999999427e-02,2.696799999999999631e-03,2.429999999999999868e-03,1.286851999999999996e-01,9.126159999999999828e-02,2.983679999999999319e-02,1.149991999999999959e-01
2.549199999999999730e-03,2.399999999999999790e-03,2.479999999999999566e-03,2.439999999999999461e-03,2.509999999999999645e-03,2.410000000000000250e-03,5.855160000000000919e-02,4.873840000000000117e-02,2.410000000000000250e-03,4.309239999999999599e-02
2.469999999999999540e-03,2.419999999999999842e-03,2.479999999999999566e-03,2.399999999999999790e-03,2.459999999999999947e-03,2.410000000000000250e-03,2.271560000000000246e-02,4.325319999999999165e-02,2.683600000000000395e-03,4.313840000000000036e-02
5.762888000000000455e-01,2.419431999999999694e-01,2.205875999999999670e-01,7.355920000000000514e-02,8.312400000000001038e-03,7.157200000000000714e-03,4.382623999999999409e-01,1.838199999999999834e-01,1.719275999999999860e-01,3.087275999999999354e-01
3.803200000000000070e-03,2.410000000000000250e-03,2.499999999999999618e-03,2.429999999999999868e-03,2.529999999999999263e-03,2.399999999999999790e-03,1.022540000000000115e-01,5.944560000000000122e-02,3.788800000000000154e-03,3.474519999999999692e-02
3.041999999999999999e-03,2.399999999999999790e-03,2.439999999999999461e-03,2.419999999999999842e-03,2.459999999999999513e-03,2.399999999999999790e-03,4.759919999999999429e-02,4.854519999999999669e-02,2.399999999999999790e-03,2.505680000000000060e-02
4.739147999999999694e-01,1.628567999999999960e-01,1.761468000000000200e-01,7.671039999999999803e-02,9.173600000000000504e-03,5.878399999999999771e-03,3.400360000000000049e-01,1.669259999999999911e-01,1.016659999999999925e-01,2.700976000000000488e-01
2.559599999999999376e-02,3.270800000000000356e-03,1.274120000000000287e-02,5.122400000000000911e-03,2.489999999999999158e-03,2.665600000000000174e-03,1.850600000000000023e-01,7.675919999999999965e-02,7.095200000000002893e-03,8.763679999999998693e-02
3.001999999999999894e-03,2.410000000000000250e-03,2.479999999999999566e-03,2.410000000000000250e-03,2.529999999999999263e-03,2.419999999999999842e-03,4.837120000000000308e-02,5.511799999999999339e-02,2.399999999999999790e-03,3.898120000000000057e-02
3.485516000000000725e-01,1.153496000000000105e-01,9.237599999999998590e-02,3.201760000000000023e-02,4.598399999999999883e-03,2.921999999999999684e-03,1.328012000000000081e-01,1.202731999999999829e-01,5.705959999999999505e-02,1.911923999999999846e-01
3.004504000000000619e-01,4.496039999999999065e-02,3.699119999999999492e-02,1.289680000000000167e-02,2.794399999999999402e-03,2.528799999999999451e-03,2.361324000000000201e-01,1.078916000000000042e-01,3.151519999999999322e-02,1.539560000000000095e-01
3.236399999999999520e-03,2.410000000000000250e-03,2.429999999999999868e-03,2.410000000000000250e-03,2.469999999999999540e-03,2.399999999999999790e-03,6.813479999999999537e-02,5.084799999999999737e-02,2.410000000000000250e-03,4.324159999999999809e-02
2.568799999999999556e-03,2.410000000000000250e-03,2.469999999999999540e-03,2.410000000000000250e-03,2.529999999999999263e-03,2.410000000000000250e-03,5.181560000000000332e-02,4.683679999999999788e-02,2.410000000000000250e-03,3.960160000000000763e-02
5.264708000000000165e-01,2.077752000000000210e-01,2.292748000000000008e-01,7.756000000000000394e-02,1.099040000000000086e-02,7.722000000000001432e-03,4.263788000000000578e-01,1.714459999999999873e-01,1.259216000000000224e-01,3.162224000000000146e-01
3.629999999999999980e-03,2.399999999999999790e-03,2.469999999999999540e-03,2.410000000000000250e-03,2.499999999999999618e-03,2.399999999999999790e-03,1.111892000000000019e-01,6.838679999999999759e-02,2.410000000000000250e-03,5.897159999999999208e-02
2.657599999999999980e-03,2.410000000000000250e-03,2.469999999999999540e-03,2.419999999999999842e-03,2.539999999999999723e-03,2.419999999999999842e-03,4.956040000000000445e-02,6.065559999999999008e-02,2.410000000000000250e-03,4.064239999999999520e-02
5.119899999999999451e-01,1.923632000000000120e-01,1.756179999999999963e-01,6.507719999999998783e-02,9.724800000000000458e-03,6.340799999999999735e-03,3.099200000000000288e-01,1.707912000000000041e-01,9.825720000000000287e-02,2.232144000000000073e-01
5.950600000000000334e-02,4.610000000000000382e-03,7.728000000000003096e-03,4.025199999999999612e-03,2.469999999999999540e-03,2.931599999999999484e-03,2.816620000000000235e-01,1.022567999999999949e-01,2.870000000000000155e-03,8.285200000000000897e-02
2.449999999999999921e-03,2.399999999999999790e-03,2.489999999999999158e-03,2.410000000000000250e-03,2.479999999999999566e-03,2.419999999999999842e-03,9.136520000000000752e-02,5.496200000000000391e-02,2.399999999999999790e-03,3.371400000000000091e-02
1.435611999999999722e-01,2.979280000000000470e-02,2.963879999999999640e-02,1.345319999999999849e-02,3.224399999999999229e-03,4.769199999999999481e-03,2.858671999999999880e-01,1.004588000000000009e-01,1.750600000000000420e-02,8.497639999999999361e-02
5.718779999999999974e-01,2.724019999999999775e-01,3.237283999999999717e-01,8.761160000000001169e-02,1.600840000000000249e-02,2.276119999999999879e-02,9.206635999999999154e-01,3.104692000000000007e-01,1.373675999999999786e-01,3.324380000000000113e-01
3.512799999999999517e-03,2.399999999999999790e-03,2.459999999999999947e-03,2.429999999999999868e-03,2.509999999999999645e-03,2.410000000000000250e-03,1.297455999999999887e-01,6.473600000000000187e-02,2.410000000000000250e-03,4.406079999999999719e-02
2.795599999999999648e-03,2.399999999999999790e-03,2.489999999999999158e-03,2.419999999999999842e-03,2.489999999999999158e-03,2.399999999999999790e-03,6.813399999999998624e-02,5.785400000000000265e-02,2.399999999999999790e-03,3.880719999999999309e-02
5.328103999999999063e-01,2.892192000000000096e-01,1.818712000000000106e-01,7.068720000000000558e-02,1.270160000000000039e-02,3.119159999999999641e-02,9.338899999999999979e-01,2.892123999999999806e-01,1.761856000000000255e-01,3.697968000000000366e-01
1.919879999999999851e-02,2.674399999999999954e-03,2.539999999999999723e-03,2.429999999999999868e-03,2.765200000000000210e-03,6.455200000000001215e-03,6.106699999999999351e-01,1.556459999999999788e-01,3.045599999999999870e-03,1.138347999999999999e-01
7.833599999999999591e-03,2.399999999999999790e-03,2.459999999999999947e-03,2.419999999999999842e-03,2.479999999999999566e-03,2.607599999999999849e-03,3.958128000000000202e-01,9.686400000000000565e-02,2.419999999999999842e-03,7.019640000000000601e-02
3.866952000000000167e-01,1.822435999999999778e-01,1.888244000000000034e-01,6.953520000000000534e-02,1.499360000000000102e-02,2.848359999999999781e-02,9.410656000000000576e-01,2.744055999999999718e-01,1.070668000000000175e-01,2.238572000000000339e-01
3.176623999999999559e-01,3.169072000000000000e-01,1.864863999999999966e-01,6.067079999999999695e-02,1.112360000000000258e-02,2.336639999999999898e-02,1.060674400000000128e+00,3.377067999999999737e-01,1.558723999999999943e-01,2.345896000000000092e-01
1.625240000000000018e-02,2.399999999999999790e-03,2.489999999999999592e-03,2.429999999999999868e-03,2.509999999999999645e-03,2.547999999999999918e-03,3.868551999999999547e-01,1.047843999999999998e-01,2.410000000000000250e-03,1.092659999999999881e-01
1.688079999999999789e-02,1.085119999999999835e-02,5.910399999999999682e-03,3.182399999999999292e-03,2.499999999999999618e-03,2.459199999999999928e-03,2.320475999999999928e-01,8.590600000000001013e-02,1.474920000000000050e-02,8.780199999999999116e-02
1.236107999999999929e-01,7.104519999999998892e-02,1.777319999999999733e-01,6.715359999999999385e-02,7.730399999999999251e-03,1.349719999999999913e-02,4.102748000000000506e-01,3.809384000000000103e-01,2.230367999999999795e-01,1.285464000000000051e-01
1.363759999999999972e-02,1.241359999999999859e-02,1.302319999999999867e-02,4.885600000000000359e-03,2.479199999999999546e-03,3.850000000000000557e-03,2.090227999999999808e-01,7.191480000000000095e-02,2.401199999999999862e-02,4.292680000000000107e-02
7.939200000000000423e-03,2.410000000000000250e-03,2.439999999999999461e-03,2.419999999999999842e-03,2.499999999999999618e-03,2.399999999999999790e-03,4.747760000000000175e-02,4.935040000000000260e-02,2.399999999999999790e-03,3.206159999999999566e-02
1.337364000000000053e-01,9.240160000000000040e-02,2.622667999999999666e-01,9.648439999999999794e-02,9.858799999999999161e-03,1.095599999999999873e-02,4.059135999999999855e-01,5.238979999999999748e-01,5.314192000000000915e-01,1.284099999999999964e-01
2.409559999999999480e-02,2.527999999999999432e-03,2.541159999999998906e-02,9.235200000000002435e-03,2.509999999999999645e-03,3.968399999999999532e-03,1.909324000000000299e-01,8.402479999999999671e-02,4.862319999999999143e-02,4.633359999999999562e-02
3.242800000000000109e-03,2.410000000000000250e-03,2.479999999999999566e-03,2.410000000000000250e-03,2.449999999999999921e-03,2.410000000000000250e-03,5.790000000000000875e-03,2.685759999999999884e-02,2.399999999999999790e-03,4.928000000000000089e-03
3.400200000000000444e-02,5.288000000000000166e-03,2.386199999999999780e-02,1.123079999999999912e-02,2.489999999999999158e-03,3.540000000000000178e-03,1.812020000000000020e-01,1.534280000000000366e-01,1.261380000000000001e-01,2.902360000000000356e-02
7.337440000000000628e-02,3.420799999999999882e-03,1.394760000000000270e-02,6.048400000000002386e-03,2.509999999999999645e-03,2.921599999999999892e-03,1.884292000000000189e-01,1.255779999999999952e-01,8.151800000000000712e-02,4.994919999999999916e-02
3.477599999999999962e-03,2.399999999999999790e-03,2.509999999999999645e-03,2.419999999999999842e-03,2.489999999999999158e-03,2.399999999999999790e-03,5.302679999999999894e-02,2.590919999999999682e-02,2.410000000000000250e-03,1.679200000000000137e-02
1.851639999999999883e-02,3.615599999999999630e-03,1.056279999999999893e-02,4.417199999999999599e-03,2.449999999999999487e-03,2.488799999999999780e-03,8.295399999999999996e-02,1.028920000000000112e-01,9.504240000000001298e-02,2.909919999999999868e-02
1.028988000000000125e-01,1.379360000000000135e-02,4.330119999999999109e-02,1.429880000000000213e-02,2.835199999999999526e-03,4.373199999999999830e-03,3.118192000000000186e-01,2.170703999999999967e-01,2.036827999999999972e-01,7.511879999999999946e-02
1.477920000000000102e-02,2.507999999999999813e-03,2.499999999999999618e-03,2.410000000000000250e-03,2.469999999999999540e-03,2.399999999999999790e-03,1.147139999999999965e-01,2.865200000000000038e-02,6.544800000000003393e-03,3.108559999999999796e-02
3.011599999999999694e-03,2.410000000000000250e-03,2.489999999999999592e-03,2.419999999999999842e-03,2.469999999999999540e-03,2.399999999999999790e-03,6.494040000000000923e-02,3.049760000000000318e-02,2.399999999999999790e-03,2.498480000000000145e-02
9.830880000000000174e-02,2.120279999999999734e-02,7.895000000000000628e-02,2.577559999999999921e-02,2.973999999999999647e-03,4.692400000000000217e-03,3.000208000000000319e-01,3.252803999999999696e-01,2.425408000000000008e-01,7.631839999999999458e-02
6.662159999999998916e-02,2.439199999999999442e-03,2.569999999999999368e-03,2.399999999999999790e-03,2.439999999999999461e-03,2.449599999999999694e-03,6.246839999999998644e-02,3.794519999999999837e-02,9.703200000000002101e-03,2.673279999999999754e-02
7.768000000000000599e-03,2.399999999999999790e-03,2.509999999999999645e-03,2.399999999999999790e-03,2.469999999999999540e-03,2.489599999999999366e-03,1.751639999999999794e-02,1.637279999999999638e-02,2.410000000000000250e-03,6.144400000000000382e-03
6.931239999999999624e-02,1.005319999999999825e-02,6.411280000000001145e-02,2.581879999999999939e-02,3.342799999999999938e-03,5.829200000000000527e-03,1.784851999999999828e-01,2.026711999999999680e-01,1.576667999999999681e-01,4.872160000000000379e-02
4.337759999999999533e-02,3.232400000000000290e-03,1.701000000000000081e-02,4.300000000000000003e-03,2.489999999999999592e-03,2.803999999999999201e-03,8.865919999999999357e-02,7.737559999999998883e-02,5.095439999999998998e-02,2.946560000000000151e-02
1.520439999999999986e-02,2.419999999999999842e-03,2.479999999999999566e-03,2.419999999999999842e-03,2.509999999999999645e-03,2.399999999999999790e-03,1.360160000000000188e-02,1.247159999999999935e-02,2.399999999999999790e-03,7.118800000000000648e-03
5.301199999999999836e-03,2.399999999999999790e-03,2.969999999999999550e-03,2.410000000000000250e-03,2.439999999999999461e-03,2.410000000000000250e-03,2.057280000000000220e-02,3.548400000000000165e-02,3.716360000000000496e-02,6.919200000000000350e-03
7.570600000000002328e-02,4.648799999999999460e-02,2.492000000000000118e-02,5.288000000000000166e-03,2.469999999999999540e-03,2.815199999999999907e-03,1.907200000000000006e-01,1.688604000000000216e-01,1.626496000000000053e-01,4.014440000000000369e-02
4.646400000000000183e-03,1.176080000000000528e-02,2.459999999999999513e-03,2.429999999999999868e-03,2.489999999999999592e-03,2.410000000000000250e-03,8.950439999999998397e-02,2.836079999999999851e-02,9.702000000000004024e-03,3.375759999999999872e-02
2.429999999999999868e-03,2.410000000000000250e-03,2.529999999999999263e-03,2.410000000000000250e-03,2.549999999999999750e-03,2.410000000000000250e-03,5.269599999999999285e-03,2.141760000000000191e-02,2.399999999999999790e-03,1.865079999999999516e-02
7.303079999999999294e-02,9.932799999999999963e-02,4.190439999999999443e-02,8.653199999999999781e-03,2.902800000000000085e-03,4.519199999999999259e-03,2.873631999999999853e-01,2.311615999999999949e-01,2.267531999999999881e-01,7.948639999999999872e-02
3.525999999999999274e-02,3.134399999999999860e-03,2.599199999999999861e-03,2.410000000000000250e-03,2.479999999999999566e-03,2.399999999999999790e-03,1.122160000000000102e-01,3.236999999999998906e-02,2.041879999999999390e-02,4.653239999999999460e-02
2.974399999999999874e-03,2.399999999999999790e-03,2.459999999999999513e-03,2.429999999999999868e-03,2.539999999999999723e-03,2.399999999999999790e-03,1.195520000000000090e-02,1.672399999999999928e-02,2.410000000000000250e-03,2.760759999999999950e-02
4.200079999999999786e-02,1.147079999999999801e-02,4.333439999999999515e-02,1.403160000000000171e-02,2.922799999999999704e-03,3.304799999999999665e-03,1.408735999999999877e-01,1.407219999999999860e-01,9.705960000000000976e-02,4.153800000000000547e-02
7.235760000000000802e-02,1.108479999999999882e-02,5.360359999999999431e-02,1.407520000000000299e-02,2.715999999999999231e-03,3.686399999999999833e-03,1.867656000000000038e-01,1.754847999999999963e-01,8.354999999999999927e-02,6.229239999999999777e-02
1.135360000000000189e-02,2.399999999999999790e-03,2.479599999999999773e-03,2.399999999999999790e-03,2.459999999999999947e-03,2.419999999999999842e-03,4.409799999999999831e-02,1.810919999999999891e-02,3.115199999999999827e-03,2.292359999999999884e-02
3.003199999999999707e-03,2.410000000000000250e-03,2.459999999999999947e-03,2.439999999999999461e-03,2.489999999999999158e-03,2.410000000000000250e-03,2.910920000000000174e-02,1.752639999999999754e-02,2.410000000000000250e-03,2.355720000000000036e-02
3.834399999999999527e-03,2.399999999999999790e-03,2.529999999999999263e-03,2.439999999999999461e-03,2.459999999999999947e-03,2.399999999999999790e-03,1.286119999999999972e-02,1.636359999999999898e-02,3.329599999999999834e-03,2.267199999999999771e-02
1.742720000000000033e-02,5.599999999999999943e-03,1.941360000000000308e-02,2.626399999999999655e-03,2.509999999999999645e-03,2.410000000000000250e-03,2.737760000000000193e-02,3.460680000000000006e-02,3.876280000000000003e-02,3.396640000000000076e-02
1.884879999999999542e-02,2.399999999999999790e-03,2.509999999999999645e-03,2.439999999999999461e-03,2.499999999999999618e-03,2.419999999999999842e-03,9.400400000000001463e-03,3.197400000000000242e-02,2.419999999999999842e-03,1.230799999999999950e-02
2.446399999999999963e-02,1.610479999999999967e-01,8.436000000000000790e-03,2.626399999999999655e-03,2.499999999999999618e-03,2.419999999999999842e-03,7.935040000000000149e-02,1.362311999999999967e-01,6.485559999999999936e-02,3.426559999999999329e-02
9.103959999999999830e-02,3.698039999999999661e-01,4.031800000000000661e-02,7.136000000000001717e-03,3.344799999999999770e-03,3.488400000000000441e-03,1.691623999999999906e-01,5.170316000000000356e-01,1.541280000000000150e-01,6.853480000000000683e-02
4.063200000000000318e-03,2.410000000000000250e-03,2.499999999999999618e-03,2.399999999999999790e-03,2.509999999999999645e-03,2.410000000000000250e-03,7.893559999999999466e-02,1.134444000000000008e-01,2.399999999999999790e-03,2.143319999999999947e-02
4.708000000000000379e-03,2.130440000000000111e-02,2.912000000000000092e-03,2.459999999999999513e-03,2.479999999999999566e-03,2.399999999999999790e-03,7.745159999999999545e-02,1.037863999999999870e-01,1.166359999999999966e-02,2.077159999999999770e-02
1.183079999999999965e-01,6.824331999999999621e-01,8.488079999999999237e-02,1.017239999999999985e-02,3.560000000000000230e-03,4.118000000000000133e-03,2.825883999999999618e-01,6.086903999999999648e-01,2.556660000000000044e-01,2.163547999999999860e-01
5.756400000000000058e-03,2.399999999999999790e-03,2.459999999999999947e-03,2.410000000000000250e-03,2.449999999999999921e-03,2.399999999999999790e-03,1.021408000000000038e-01,1.156824000000000047e-01,2.410000000000000250e-03,1.847159999999999774e-02
3.001999999999999894e-03,2.399999999999999790e-03,2.469999999999999540e-03,2.410000000000000250e-03,2.509999999999999645e-03,2.419999999999999842e-03,8.359119999999999051e-02,7.791119999999999990e-02,2.399999999999999790e-03,2.040600000000000053e-02
6.769079999999999542e-02,4.471928000000000569e-01,1.196760000000000011e-02,3.155599999999999725e-03,2.489999999999999158e-03,2.794799999999999628e-03,1.707015999999999811e-01,4.124624000000000068e-01,1.556087999999999916e-01,9.313480000000000369e-02
7.556399999999999575e-03,4.305999999999999932e-03,2.549199999999999730e-03,2.410000000000000250e-03,2.509999999999999645e-03,2.399999999999999790e-03,9.661039999999999905e-02,1.531172000000000089e-01,9.088400000000003420e-03,2.036480000000000234e-02
3.482000000000000286e-03,2.399999999999999790e-03,2.459999999999999513e-03,2.419999999999999842e-03,2.469999999999999540e-03,2.410000000000000250e-03,8.490359999999999574e-02,1.056691999999999909e-01,2.429999999999999868e-03,1.693000000000000060e-02
5.086359999999999493e-02,2.723644000000000065e-01,1.442760000000000049e-02,2.519599999999999444e-03,2.439999999999999895e-03,2.469999999999999540e-03,1.111523999999999845e-01,3.159867999999999566e-01,9.434200000000000919e-02,5.849320000000000214e-02
4.021319999999999062e-02,1.632643999999999762e-01,7.174400000000003517e-03,2.419999999999999842e-03,2.509999999999999645e-03,2.479599999999999773e-03,1.034955999999999932e-01,2.976359999999999562e-01,5.863639999999998437e-02,3.383319999999999383e-02
3.455999999999999871e-03,2.399999999999999790e-03,2.489999999999999158e-03,2.399999999999999790e-03,2.459999999999999513e-03,2.410000000000000250e-03,7.573359999999999814e-02,1.190539999999999932e-01,2.991600000000000075e-03,2.151199999999999987e-02
7.751199999999998889e-03,5.423519999999999730e-02,2.549199999999999730e-03,2.410000000000000250e-03,2.459999999999999513e-03,2.399999999999999790e-03,7.070239999999999858e-02,1.393684000000000034e-01,2.320600000000000440e-02,2.452279999999999738e-02
1.750168000000000279e-01,7.302724000000000437e-01,5.928239999999999899e-02,1.110559999999999846e-02,3.404399999999999701e-03,4.155200000000000386e-03,1.739915999999999963e-01,7.098740000000000050e-01,2.628971999999999976e-01,1.814479999999999982e-01
5.252079999999999249e-02,2.399999999999999790e-03,2.558799999999999530e-03,2.410000000000000250e-03,2.479999999999999566e-03,2.399999999999999790e-03,1.287784000000000151e-01,1.278299999999999992e-01,4.671200000000000352e-03,2.031520000000000201e-02
5.587440000000000462e-02,2.410000000000000250e-03,2.479999999999999566e-03,2.429999999999999868e-03,2.479999999999999566e-03,2.399999999999999790e-03,6.898680000000000090e-02,8.821320000000000550e-02,2.399999999999999790e-03,1.179720000000000074e-02
2.052347999999999950e-01,7.171492000000000422e-01,1.198015999999999942e-01,2.817319999999999894e-02,4.067999999999999568e-03,4.822400000000000124e-03,2.165328000000000253e-01,6.811540000000000372e-01,2.657459999999999822e-01,2.508251999999999704e-01
1.112008000000000163e-01,1.856536000000000020e-01,1.757159999999999625e-02,2.734399999999999678e-03,2.479999999999999566e-03,2.429999999999999868e-03,1.475595999999999852e-01,2.155184000000000544e-01,8.786719999999999253e-02,4.167919999999999264e-02
1.374096000000000206e-01,2.429999999999999868e-03,2.589999999999999854e-03,2.429999999999999868e-03,2.459999999999999513e-03,2.399999999999999790e-03,7.454239999999998090e-02,1.224636000000000058e-01,3.050799999999999779e-03,2.033759999999999735e-02
1.464568000000000259e-01,6.721796000000000992e-01,7.829239999999999811e-02,1.636119999999999935e-02,4.460399999999999782e-03,5.490400000000000315e-03,1.860439999999999872e-01,5.852699999999999569e-01,2.663215999999999917e-01,2.517668000000000128e-01
3.411759999999999793e-02,1.907767999999999686e-01,2.313119999999999760e-02,2.734400000000000112e-03,2.429999999999999868e-03,2.429999999999999868e-03,1.131175999999999987e-01,2.293739999999999946e-01,9.929039999999997312e-02,4.183680000000000038e-02
7.367199999999999097e-03,2.399999999999999790e-03,2.569999999999999368e-03,2.419999999999999842e-03,2.529999999999999263e-03,2.399999999999999790e-03,6.005479999999999846e-02,4.328959999999999753e-02,2.429599999999999642e-03,1.214600000000000055e-02
3.815319999999999823e-02,2.827100000000000168e-01,2.540359999999999840e-02,2.785199999999999829e-03,2.479999999999999566e-03,2.419999999999999842e-03,6.876279999999999892e-02,1.907715999999999856e-01,1.063920000000000282e-01,4.357559999999999906e-02
8.254680000000000351e-02,4.956783999999999635e-01,2.453160000000000063e-02,2.705199999999999619e-03,3.039200000000000148e-03,3.055200000000000103e-03,8.748079999999999745e-02,4.466699999999999560e-01,1.533955999999999931e-01,5.425199999999999467e-02
5.632400000000000947e-03,2.399999999999999790e-03,2.489999999999999158e-03,2.419999999999999842e-03,2.489999999999999158e-03,2.399999999999999790e-03,6.797759999999999914e-02,1.010023999999999922e-01,2.588000000000000023e-03,1.558679999999999961e-02
1.717559999999999920e-02,2.399999999999999790e-03,2.795599999999999214e-03,2.429999999999999868e-03,2.469999999999999540e-03,2.390399999999999556e-03,3.725039999999999601e-02,6.889599999999999891e-02,2.991200000000000282e-03,1.470159999999999870e-02
1.595628000000000046e-01,8.960335999999999856e-01,1.444035999999999931e-01,1.705440000000000081e-02,4.563599999999999254e-03,3.833199999999999715e-03,1.471184000000000103e-01,7.167595999999998302e-01,4.032456000000000373e-01,1.887763999999999831e-01
1.197735999999999940e-01,7.914040000000004127e-02,3.116239999999998594e-02,3.663599999999999930e-03,2.539599999999999497e-03,2.419999999999999842e-03,2.590999999999999553e-02,2.241587999999999914e-01,6.335559999999999803e-02,1.348640000000000082e-02
4.399999999999999745e-02,2.439199999999999442e-03,2.667199999999999346e-03,2.419999999999999842e-03,2.549999999999999750e-03,2.399999999999999790e-03,1.623959999999999987e-02,7.212999999999999967e-02,3.375200000000000075e-03,4.849199999999999691e-03
5.076119999999999244e-02,3.386019999999999586e-01,3.253679999999999767e-02,2.674799999999999747e-03,2.469999999999999106e-03,2.410000000000000250e-03,2.516279999999999906e-02,2.424216000000000149e-01,1.487847999999999948e-01,4.296520000000000200e-02
3.113119999999999776e-02,1.410987999999999409e-01,8.164000000000001117e-03,2.410000000000000250e-03,2.419999999999999842e-03,2.399999999999999790e-03,2.148479999999999834e-02,2.281732000000000204e-01,3.281479999999999120e-02,1.037200000000000275e-02
6.101200000000000200e-03,2.429999999999999868e-03,2.795199999999999421e-03,2.410000000000000250e-03,2.439999999999999461e-03,2.410000000000000250e-03,9.867999999999998301e-03,5.659039999999999904e-02,3.188000000000000295e-03,2.617199999999999648e-03
4.873599999999999634e-03,2.399999999999999790e-03,2.579599999999999602e-03,2.439999999999999895e-03,2.489999999999999158e-03,2.399999999999999790e-03,8.503199999999998954e-03,5.033679999999999405e-02,2.449199999999999901e-03,3.080000000000000272e-03
8.266000000000002512e-03,2.410000000000000250e-03,2.973999999999999647e-03,2.399999999999999790e-03,2.519999999999999671e-03,2.419999999999999842e-03,9.028000000000001302e-03,5.990280000000000604e-02,2.912000000000000092e-03,3.423599999999999734e-03
1.036800000000000048e-02,2.410000000000000250e-03,5.740000000000001178e-03,2.419999999999999842e-03,2.529999999999999263e-03,2.399999999999999790e-03,4.526080000000000381e-02,9.728760000000000185e-02,3.472400000000000053e-03,3.816799999999999533e-03
8.108800000000001076e-03,2.399999999999999790e-03,2.549999999999999750e-03,2.410000000000000250e-03,2.449999999999999921e-03,2.399999999999999790e-03,2.839879999999999835e-02,6.655240000000001155e-02,2.497999999999999787e-03,2.547600000000000125e-03
5.455120000000000802e-02,5.456319999999999226e-02,1.374695999999999974e-01,1.520439999999999986e-02,2.549999999999999750e-03,2.410000000000000250e-03,1.242092000000000057e-01,1.435231999999999897e-01,2.416919999999999832e-02,1.061119999999999945e-02
3.836399999999999793e-03,2.399999999999999790e-03,3.252799999999999702e-03,2.399999999999999790e-03,2.479999999999999566e-03,2.410000000000000250e-03,6.778080000000000216e-02,5.519639999999999963e-02,2.410000000000000250e-03,3.669200000000000066e-03
4.501199999999999472e-03,2.399999999999999790e-03,2.509999999999999645e-03,2.419999999999999842e-03,2.459999999999999947e-03,2.399999999999999790e-03,1.659239999999999673e-02,5.117359999999999270e-02,2.399999999999999790e-03,2.944000000000000002e-03
7.361919999999999575e-02,1.580671999999999633e-01,2.100324000000000080e-01,4.525480000000000474e-02,7.435200000000000316e-03,5.645200000000000391e-03,2.815731999999999680e-01,1.613639999999999797e-01,3.458440000000000125e-02,3.914639999999999787e-02
1.576720000000000205e-02,1.421919999999999955e-02,2.043439999999999146e-02,5.058400000000001090e-03,2.646799999999999934e-03,2.498400000000000013e-03,6.483519999999998173e-02,8.548880000000000368e-02,2.478799999999999754e-03,9.992400000000001975e-03
4.434799999999999159e-03,2.410000000000000250e-03,2.539999999999999723e-03,2.419999999999999842e-03,2.499999999999999618e-03,2.399999999999999790e-03,1.020120000000000055e-02,4.173919999999999714e-02,2.399999999999999790e-03,3.757600000000000263e-03
6.359599999999999975e-03,4.931199999999999299e-03,1.562880000000000172e-02,2.997999999999999363e-03,2.459999999999999513e-03,2.410000000000000250e-03,2.296679999999999902e-02,5.121919999999999945e-02,3.181599999999999706e-03,4.687600000000000100e-03
9.948759999999999548e-02,1.729656000000000249e-01,2.549596000000000084e-01,3.850959999999999800e-02,3.051600000000000232e-03,3.305199999999999892e-03,1.665236000000000216e-01,1.346395999999999982e-01,1.597520000000000190e-02,5.203680000000000111e-02
5.975199999999999956e-03,2.399999999999999790e-03,2.568799999999999556e-03,2.449999999999999487e-03,2.449999999999999921e-03,2.399999999999999790e-03,5.545640000000000291e-02,7.334040000000000004e-02,2.399999999999999790e-03,1.134440000000000101e-02
3.703599999999999601e-03,2.419999999999999842e-03,2.489999999999999158e-03,2.410000000000000250e-03,2.469999999999999540e-03,2.410000000000000250e-03,1.600720000000000268e-02,3.958719999999999600e-02,3.573999999999999920e-03,4.750800000000000335e-03
3.945879999999999527e-02,5.714759999999999979e-02,1.168587999999999849e-01,1.463279999999999963e-02,2.558399999999999737e-03,2.557999999999999944e-03,1.300479999999999969e-01,6.892479999999999440e-02,1.234880000000000005e-02,2.025000000000000064e-02
1.026439999999999853e-01,8.164599999999999635e-02,1.109087999999999880e-01,2.735519999999999965e-02,5.249599999999999232e-03,4.596399999999999618e-03,1.845428000000000068e-01,1.360435999999999868e-01,5.493520000000000347e-02,3.132080000000000281e-02
4.564839999999999176e-02,2.399999999999999790e-03,2.589999999999999854e-03,2.399999999999999790e-03,2.459999999999999513e-03,2.469599999999999747e-03,6.746160000000001045e-02,7.739079999999998183e-02,2.410000000000000250e-03,8.444800000000000570e-03
4.082960000000000061e-02,2.308120000000000310e-02,6.375480000000000036e-02,1.069639999999999654e-02,2.459999999999999513e-03,3.794000000000000063e-03,2.470688000000000051e-01,8.709880000000000400e-02,5.070399999999999213e-03,2.973440000000000111e-02
2.624719999999999137e-02,1.252440000000000324e-02,3.445519999999999139e-02,7.162400000000004527e-03,2.598399999999999408e-03,2.547600000000000125e-03,1.618364000000000191e-01,7.439719999999999667e-02,2.439999999999999461e-03,1.003400000000000299e-02
4.945199999999999423e-03,1.303760000000000162e-02,2.509999999999999645e-03,2.429999999999999868e-03,2.459999999999999513e-03,2.419999999999999842e-03,1.024719999999999936e-01,6.984640000000000293e-02,4.803599999999999016e-03,5.837200000000000721e-03
3.971999999999999836e-03,2.626399999999999221e-03,1.442079999999999924e-02,2.449600000000000128e-03,2.459999999999999513e-03,2.399999999999999790e-03,8.917879999999998863e-02,5.689759999999999956e-02,2.399999999999999790e-03,4.325599999999999758e-03
8.514400000000000093e-03,4.177600000000000063e-03,5.214239999999999153e-02,2.952799999999999783e-03,2.459999999999999513e-03,2.410000000000000250e-03,7.255959999999998800e-02,6.459279999999999189e-02,2.419999999999999842e-03,5.600799999999999529e-03
2.706399999999999431e-03,2.410000000000000250e-03,2.479999999999999566e-03,2.410000000000000250e-03,2.499999999999999618e-03,2.419999999999999842e-03,8.957759999999999334e-02,6.108559999999998991e-02,2.410000000000000250e-03,4.163600000000000807e-03
2.686799999999999605e-03,2.399999999999999790e-03,2.439999999999999461e-03,2.419999999999999842e-03,2.449999999999999921e-03,2.410000000000000250e-03,5.733279999999999627e-02,5.192840000000000650e-02,2.399999999999999790e-03,3.644000000000000104e-03
2.880719999999999809e-02,5.593039999999999123e-02,1.274768000000000012e-01,2.342079999999999856e-02,2.785599999999999622e-03,2.657599999999999546e-03,1.197007999999999961e-01,8.240319999999999590e-02,2.803999999999999635e-03,1.030519999999999874e-02
1.073879999999999973e-02,1.391879999999999853e-02,4.364559999999999967e-02,5.165600000000000226e-03,2.459999999999999947e-03,2.429999999999999868e-03,1.299320000000000197e-01,6.756960000000000743e-02,2.410000000000000250e-03,7.282400000000000505e-03
3.179199999999999648e-03,2.410000000000000250e-03,2.479999999999999566e-03,2.429999999999999868e-03,2.410000000000000250e-03,2.399999999999999790e-03,7.476439999999999475e-02,5.398800000000000127e-02,2.399999999999999790e-03,3.394799999999999901e-03
8.052399999999999489e-03,2.557999999999999944e-03,2.621079999999999938e-02,2.549199999999999296e-03,2.469999999999999540e-03,2.508799999999999832e-03,7.193320000000000269e-02,5.523480000000000056e-02,2.399999999999999790e-03,5.051199999999999614e-03
3.287280000000000063e-02,3.233999999999999896e-03,2.374959999999999571e-02,2.459999999999999947e-03,2.479999999999999566e-03,2.439999999999999461e-03,8.153159999999999574e-02,7.132239999999999414e-02,2.410000000000000250e-03,3.785999999999999435e-03
3.139599999999999769e-03,2.399999999999999790e-03,2.529999999999999263e-03,2.399999999999999790e-03,2.439999999999999895e-03,2.399999999999999790e-03,1.126052000000000025e-01,6.191400000000000375e-02,2.399999999999999790e-03,2.549599999999999957e-03
5.041999999999999607e-03,2.684399999999999981e-03,8.237599999999999437e-03,2.449599999999999261e-03,2.479999999999999566e-03,2.429999999999999868e-03,1.139404000000000111e-01,6.042920000000000930e-02,2.517999999999999839e-03,2.638399999999999513e-03
6.006279999999999952e-02,1.888159999999999492e-02,5.925839999999999580e-02,8.672400000000001982e-03,2.559999999999999776e-03,2.548399999999999711e-03,1.299720000000000042e-01,9.183639999999999859e-02,3.126799999999999458e-03,7.568400000000000301e-03
3.227999999999999967e-03,2.399999999999999790e-03,2.439999999999999895e-03,2.410000000000000250e-03,2.519999999999999671e-03,2.419999999999999842e-03,9.989200000000000856e-02,5.572400000000000270e-02,2.399999999999999790e-03,2.658399999999999565e-03
5.100799999999999952e-03,2.410000000000000250e-03,2.479999999999999566e-03,2.399999999999999790e-03,2.449999999999999921e-03,2.419999999999999842e-03,8.853160000000000196e-02,6.100640000000000923e-02,2.410000000000000250e-03,2.508400000000000039e-03
4.257440000000000530e-02,2.637804000000000260e-01,6.967719999999998082e-02,1.588639999999999844e-02,2.686800000000000039e-03,3.215199999999999222e-03,2.388183999999999862e-01,2.346023999999999887e-01,9.983440000000000369e-02,7.253640000000000088e-02
1.440720000000000021e-02,2.119319999999999191e-02,1.177240000000000404e-02,3.389999999999999784e-03,2.469999999999999540e-03,2.410000000000000250e-03,1.610360000000000125e-01,1.009916000000000008e-01,1.999519999999999076e-02,3.204959999999999753e-02
4.300000000000000870e-03,2.410000000000000250e-03,2.479999999999999566e-03,2.399999999999999790e-03,2.489999999999999158e-03,2.399999999999999790e-03,1.194231999999999932e-01,6.880000000000001392e-02,2.889599999999999547e-03,1.201319999999999992e-02
9.782399999999998388e-03,8.290679999999998884e-02,3.498799999999999827e-03,2.419999999999999842e-03,2.459999999999999947e-03,2.399999999999999790e-03,1.201184000000000002e-01,1.103552000000000144e-01,3.943680000000000102e-02,1.942880000000000301e-02
4.496880000000000321e-02,3.175675999999999499e-01,6.128800000000000220e-03,2.439999999999999461e-03,2.479999999999999566e-03,2.399999999999999790e-03,1.219044000000000100e-01,3.097559999999999758e-01,1.192043999999999881e-01,4.974359999999999893e-02
4.225999999999998855e-03,2.399999999999999790e-03,2.489999999999999158e-03,2.399999999999999790e-03,2.479999999999999566e-03,2.399999999999999790e-03,9.765399999999999081e-02,5.844679999999999320e-02,2.399999999999999790e-03,1.076200000000000073e-02
5.804000000000000131e-03,2.789280000000000231e-02,2.843999999999999306e-03,2.410000000000000250e-03,2.469999999999999540e-03,2.399999999999999790e-03,9.409000000000000696e-02,7.202119999999999356e-02,1.057839999999999996e-02,1.334360000000000060e-02
9.293959999999998334e-02,5.000175999999999510e-01,3.724880000000000552e-02,4.761199999999999287e-03,2.765199999999999776e-03,2.685200000000000000e-03,1.263979999999999826e-01,4.748635999999999968e-01,1.739723999999999993e-01,9.487039999999999362e-02
4.099600000000000119e-03,2.517600000000000046e-03,2.519999999999999671e-03,2.410000000000000250e-03,2.459999999999999513e-03,2.429999999999999868e-03,7.854320000000000745e-02,8.203120000000001244e-02,3.427599999999999831e-03,9.989200000000000162e-03
2.902399999999999858e-03,2.400400000000000450e-03,2.439999999999999461e-03,2.439999999999999461e-03,2.509999999999999645e-03,2.399999999999999790e-03,4.317599999999999910e-02,4.833679999999999921e-02,2.399999999999999790e-03,5.907200000000000471e-03
3.315999999999999937e-03,4.744799999999999539e-03,2.539199999999999704e-03,2.410000000000000250e-03,2.519999999999999671e-03,2.410000000000000250e-03,3.753159999999999830e-02,5.186559999999999782e-02,4.804399999999999470e-03,4.741600000000000328e-03
1.214487999999999956e-01,4.779695999999999945e-01,8.965079999999998883e-02,2.104640000000000330e-02,6.570400000000000545e-03,6.158400000000001373e-03,1.472067999999999988e-01,6.901080000000000547e-01,2.226923999999999848e-01,2.288708000000000131e-01
3.916000000000000210e-03,2.399999999999999790e-03,2.489999999999999158e-03,2.429999999999999868e-03,2.469999999999999540e-03,2.399999999999999790e-03,4.516560000000000019e-02,6.016720000000000401e-02,2.449199999999999901e-03,5.072799999999999705e-03
1.316519999999999843e-02,1.201632000000000117e-01,5.699599999999999111e-03,2.419999999999999842e-03,2.549999999999999750e-03,2.399999999999999790e-03,6.394560000000000521e-02,1.130375999999999881e-01,4.185320000000000012e-02,1.660759999999999667e-02
4.995720000000000022e-02,2.714892000000000416e-01,1.896919999999999509e-02,3.634400000000000304e-03,2.608399999999999434e-03,2.537999999999999892e-03,1.148019999999999874e-01,3.576068000000000024e-01,1.070371999999999851e-01,1.002791999999999989e-01
3.777199999999999655e-03,2.399999999999999790e-03,2.499999999999999618e-03,2.429999999999999868e-03,2.469999999999999540e-03,2.399999999999999790e-03,6.295079999999998732e-02,5.752280000000000587e-02,2.852399999999999727e-03,8.453200000000000991e-03
5.210000000000000221e-03,2.399999999999999790e-03,2.469999999999999540e-03,2.419999999999999842e-03,2.449999999999999487e-03,2.410000000000000250e-03,4.031080000000000080e-02,5.181039999999999951e-02,2.410000000000000250e-03,9.704400000000000179e-03
6.762239999999999918e-02,3.745852000000000626e-01,1.963360000000000105e-02,3.077199999999999987e-03,2.589999999999999854e-03,2.399999999999999790e-03,8.090720000000001244e-02,4.272735999999999201e-01,1.446131999999999973e-01,7.006880000000001441e-02
4.091199999999999698e-03,2.410000000000000250e-03,2.499999999999999618e-03,2.410000000000000250e-03,2.459999999999999513e-03,2.419999999999999842e-03,5.493160000000000404e-02,5.409520000000000300e-02,2.429599999999999642e-03,6.006399999999999413e-03
3.299199999999999963e-03,2.399999999999999790e-03,2.509999999999999645e-03,2.419999999999999842e-03,2.429999999999999868e-03,2.399999999999999790e-03,3.846600000000000019e-02,4.908959999999999713e-02,2.399999999999999790e-03,5.897999999999999597e-03
5.556679999999999953e-02,3.869627999999999957e-01,2.029159999999999991e-02,2.608799999999999661e-03,2.499999999999999618e-03,2.419999999999999842e-03,6.041320000000000023e-02,3.752623999999999960e-01,1.530487999999999849e-01,7.430359999999998355e-02
7.686800000000000577e-03,1.450320000000000428e-02,2.509999999999999645e-03,2.429999999999999868e-03,2.479999999999999566e-03,2.419999999999999842e-03,3.835399999999999920e-02,7.603479999999999961e-02,7.854000000000003340e-03,1.011840000000000135e-02
1.457000000000000135e-02,2.399999999999999790e-03,2.509999999999999645e-03,2.410000000000000250e-03,2.469999999999999540e-03,2.410000000000000250e-03,2.245040000000000230e-02,5.253159999999999774e-02,2.410000000000000250e-03,5.131600000000000050e-03
1.305880000000000235e-02,1.228363999999999845e-01,5.063999999999999058e-03,2.399999999999999790e-03,2.459999999999999513e-03,2.399999999999999790e-03,2.010559999999999778e-02,1.081271999999999928e-01,5.591759999999999786e-02,1.140360000000000158e-02
1.102628000000000080e-01,4.775475999999999610e-01,6.489840000000000886e-02,7.345200000000002248e-03,2.785599999999999622e-03,2.646399999999999707e-03,8.968519999999999270e-02,5.969200000000001172e-01,2.281887999999999972e-01,1.447295999999999860e-01
9.589199999999999113e-03,2.410000000000000250e-03,2.549999999999999750e-03,2.429999999999999868e-03,2.479999999999999566e-03,2.410000000000000250e-03,2.791679999999999856e-02,4.442520000000000496e-02,2.429999999999999868e-03,6.202400000000001141e-03
2.070640000000000328e-02,2.645199999999999895e-03,2.539999999999999723e-03,2.410000000000000250e-03,2.489999999999999592e-03,2.410000000000000250e-03,9.987600000000000991e-03,5.154600000000000154e-02,2.419999999999999842e-03,5.153200000000000142e-03
4.923440000000000455e-02,3.309236000000000399e-01,1.552039999999999843e-02,2.419999999999999842e-03,2.539999999999999723e-03,2.399999999999999790e-03,3.675040000000000251e-02,3.334471999999999992e-01,1.305731999999999726e-01,5.428079999999999711e-02
4.541599999999999804e-03,2.410000000000000250e-03,2.429999999999999868e-03,2.419999999999999842e-03,2.479999999999999566e-03,2.399999999999999790e-03,1.230280000000000089e-02,6.535120000000001206e-02,2.419999999999999842e-03,5.161999999999999922e-03
6.365199999999999678e-03,2.419999999999999842e-03,2.499999999999999618e-03,2.410000000000000250e-03,2.469999999999999540e-03,2.399999999999999790e-03,9.782000000000000764e-03,4.624600000000000238e-02,2.399999999999999790e-03,5.131600000000000050e-03
5.807960000000000206e-02,2.432499999999999662e-01,3.151919999999999722e-02,5.794799999999999257e-03,2.843599999999999513e-03,2.734400000000000112e-03,3.412279999999999480e-02,3.762787999999999689e-01,1.250171999999999950e-01,4.862720000000000237e-02
9.739840000000000997e-02,1.278915999999999942e-01,1.340200000000000072e-02,2.939599999999999679e-03,2.469999999999999540e-03,2.419999999999999842e-03,3.754359999999999642e-02,3.159951999999999761e-01,7.422960000000002057e-02,1.803039999999999851e-02
9.981200000000000835e-03,2.399999999999999790e-03,2.489999999999999158e-03,2.429999999999999868e-03,2.479999999999999566e-03,2.410000000000000250e-03,9.361600000000001170e-03,4.617319999999999758e-02,2.399999999999999790e-03,4.569200000000000692e-03
6.033600000000000074e-03,4.187999999999999882e-03,2.529199999999999244e-03,2.410000000000000250e-03,2.509999999999999645e-03,2.399999999999999790e-03,2.620480000000000725e-02,3.886160000000000309e-02,3.252399999999999909e-03,5.579999999999999891e-03
3.209600000000000647e-02,3.048063999999999774e-01,1.454560000000000054e-02,2.539199999999999704e-03,2.489999999999999592e-03,2.952799999999999783e-03,1.775892000000000026e-01,1.503632000000000024e-01,1.855860000000000010e-01,7.919079999999999175e-02
4.514800000000000237e-03,2.009639999999999344e-02,3.920799999999999459e-03,2.439999999999999895e-03,2.449999999999999487e-03,2.399999999999999790e-03,8.045720000000000649e-02,5.121280000000000276e-02,3.081199999999999217e-02,1.926119999999999916e-02
2.656799999999999527e-03,2.399999999999999790e-03,2.500000000000000052e-03,2.439999999999999895e-03,2.439999999999999461e-03,2.410000000000000250e-03,3.713880000000000653e-02,4.013960000000000444e-02,2.587599999999999796e-03,1.419240000000000085e-02
2.801680000000000489e-02,2.994332000000000105e-01,8.948799999999999810e-03,2.459999999999999947e-03,2.459999999999999947e-03,2.716000000000000098e-03,1.254792000000000129e-01,9.874039999999999206e-02,1.518836000000000352e-01,7.560120000000000728e-02
6.174000000000000668e-03,2.337072000000000038e-01,2.754799999999999523e-03,2.410000000000000250e-03,2.489999999999999158e-03,2.399999999999999790e-03,8.927639999999999187e-02,6.003239999999999271e-02,1.147251999999999994e-01,4.143480000000000080e-02
3.278399999999999457e-03,2.399999999999999790e-03,2.509999999999999645e-03,2.399999999999999790e-03,2.469999999999999540e-03,2.399999999999999790e-03,4.761759999999999604e-02,4.879679999999999435e-02,2.577199999999999543e-03,2.399040000000000200e-02
8.081199999999998454e-03,1.274719999999999846e-02,2.667199999999999346e-03,2.449999999999999921e-03,2.499999999999999618e-03,2.439999999999999895e-03,7.831919999999999160e-02,6.841839999999999034e-02,1.550519999999999676e-02,3.948159999999999864e-02
4.707599999999999285e-03,6.972000000000005970e-03,2.549999999999999750e-03,2.419999999999999842e-03,2.479999999999999566e-03,2.399999999999999790e-03,5.915919999999999512e-02,6.063880000000000658e-02,4.739200000000000704e-03,3.373239999999999572e-02
3.520799999999999277e-03,2.399999999999999790e-03,2.459999999999999513e-03,2.410000000000000250e-03,2.469999999999999540e-03,2.399999999999999790e-03,4.301680000000000087e-02,4.227640000000000564e-02,2.410000000000000250e-03,1.428120000000000257e-02
3.689599999999999477e-03,2.399999999999999790e-03,2.449999999999999921e-03,2.419999999999999842e-03,2.479999999999999566e-03,2.399999999999999790e-03,4.901120000000000476e-02,4.451200000000000295e-02,2.627199999999999674e-03,1.939079999999999970e-02
7.603600000000000289e-03,9.750120000000001008e-02,2.657599999999999546e-03,2.419999999999999842e-03,2.489999999999999158e-03,2.399999999999999790e-03,7.595359999999999612e-02,8.666279999999999817e-02,4.274479999999999946e-02,5.278400000000000453e-02
3.493199999999999691e-03,2.399999999999999790e-03,2.519999999999999671e-03,2.410000000000000250e-03,2.449999999999999487e-03,2.399999999999999790e-03,6.420040000000000469e-02,4.961039999999999894e-02,2.842399999999999701e-03,2.169440000000000257e-02
3.964399999999999868e-03,2.399999999999999790e-03,2.479999999999999566e-03,2.410000000000000250e-03,2.469999999999999540e-03,2.410000000000000250e-03,4.703279999999999961e-02,5.164080000000000059e-02,2.606400000000000036e-03,1.809839999999999713e-02
4.215599999999999903e-03,2.399999999999999790e-03,2.449999999999999921e-03,2.410000000000000250e-03,2.479999999999999566e-03,2.419999999999999842e-03,5.601760000000000073e-02,5.343879999999999464e-02,3.068399999999999773e-03,2.464559999999999668e-02
4.142000000000000716e-03,2.399999999999999790e-03,2.509999999999999645e-03,2.410000000000000250e-03,2.429999999999999868e-03,2.399999999999999790e-03,6.861320000000001307e-02,6.472800000000000775e-02,2.537599999999999665e-03,2.068159999999999790e-02
3.198399999999999681e-03,2.399999999999999790e-03,2.459999999999999513e-03,2.410000000000000250e-03,2.469999999999999540e-03,2.410000000000000250e-03,5.287319999999999520e-02,5.195319999999999799e-02,2.419999999999999842e-03,1.904480000000000062e-02
5.139200000000000018e-03,3.349199999999999660e-03,2.549999999999999750e-03,2.410000000000000250e-03,2.459999999999999513e-03,2.399999999999999790e-03,5.864079999999999987e-02,6.182880000000000320e-02,4.074799999999999950e-03,2.856159999999999949e-02
4.285999999999999879e-03,6.808400000000003512e-03,2.509999999999999645e-03,2.410000000000000250e-03,2.479999999999999566e-03,2.419999999999999842e-03,5.777639999999999859e-02,6.862400000000000444e-02,6.657600000000003966e-03,2.710480000000000528e-02
3.309199999999999989e-03,2.399999999999999790e-03,2.479999999999999566e-03,2.429999999999999868e-03,2.489999999999999158e-03,2.399999999999999790e-03,5.122919999999998864e-02,5.661279999999999785e-02,2.615599999999999609e-03,1.676039999999999822e-02
6.567999999999999186e-03,2.410000000000000250e-03,2.479199999999999546e-03,2.439999999999999895e-03,2.469999999999999540e-03,2.410000000000000250e-03,2.125200000000000353e-02,6.428799999999999792e-02,2.576399999999999524e-03,1.517879999999999924e-02
2.029720000000000135e-02,3.376839999999999009e-02,2.804399999999999428e-03,2.410000000000000250e-03,2.469999999999999540e-03,2.410000000000000250e-03,2.400719999999999937e-02,9.201879999999999782e-02,1.576599999999999877e-02,2.526280000000000192e-02
3.159599999999999822e-03,2.410000000000000250e-03,2.499999999999999618e-03,2.429999999999999868e-03,2.499999999999999618e-03,2.410000000000000250e-03,2.940119999999999886e-02,5.049079999999999541e-02,3.039599999999999941e-03,1.584319999999999826e-02
3.200399999999999079e-03,2.399999999999999790e-03,2.499999999999999618e-03,2.410000000000000250e-03,2.449999999999999921e-03,2.419999999999999842e-03,2.270960000000000339e-02,5.877079999999999804e-02,2.399999999999999790e-03,1.734760000000000121e-02
4.599199999999999469e-03,2.390399999999999556e-03,2.469999999999999540e-03,2.399999999999999790e-03,2.449999999999999487e-03,2.410000000000000250e-03,2.647880000000000025e-02,6.584000000000000963e-02,3.204399999999999610e-03,2.243679999999999980e-02
3.729999999999999809e-03,2.399999999999999790e-03,2.469999999999999540e-03,2.399999999999999790e-03,2.459999999999999513e-03,2.399999999999999790e-03,2.708400000000000044e-02,6.345080000000000164e-02,2.459199999999999928e-03,1.552119999999999889e-02
3.220799999999999792e-03,2.399999999999999790e-03,2.459999999999999513e-03,2.439999999999999461e-03,2.489999999999999592e-03,2.410000000000000250e-03,4.525200000000000056e-03,5.181039999999999257e-02,2.399999999999999790e-03,1.355600000000000034e-02
3.347999999999999848e-03,2.399999999999999790e-03,2.479999999999999566e-03,2.419999999999999842e-03,2.469999999999999540e-03,2.410000000000000250e-03,8.275199999999999917e-03,5.947480000000000128e-02,2.410000000000000250e-03,1.324320000000000185e-02
1.961040000000000005e-02,1.588443999999999967e-01,4.470399999999999374e-03,2.399999999999999790e-03,2.509999999999999645e-03,2.557599999999999717e-03,1.546960000000000002e-02,1.055471999999999938e-01,8.424559999999998994e-02,4.529759999999999343e-02
3.542000000000000010e-03,2.399999999999999790e-03,2.479999999999999566e-03,2.410000000000000250e-03,2.499999999999999618e-03,2.410000000000000250e-03,7.239600000000000549e-03,5.056599999999999984e-02,2.507999999999999813e-03,1.469679999999999945e-02
3.228799999999999552e-03,2.399999999999999790e-03,2.519999999999999671e-03,2.410000000000000250e-03,2.529999999999999263e-03,2.399999999999999790e-03,6.124800000000000556e-03,4.974719999999999837e-02,2.419999999999999842e-03,1.719240000000000004e-02
1.675159999999999844e-02,2.163431999999999855e-01,5.649599999999999414e-03,3.437599999999999857e-03,2.500000000000000052e-03,2.429999999999999868e-03,1.340160000000000136e-02,9.704080000000001038e-02,9.533559999999999257e-02,3.847640000000000088e-02
4.121599999999999570e-03,7.218680000000000929e-02,2.489999999999999158e-03,2.410000000000000250e-03,2.519999999999999671e-03,2.410000000000000250e-03,6.297599999999999552e-03,5.171800000000000008e-02,4.063039999999999707e-02,1.727000000000000063e-02
0.000000000000000000e+00,0.000000000000000000e+00,0.000000000000000000e+00,5.686073566139444567e-270,5.686073566141172859e-270,5.686073566141172859e-270,5.686073566141172859e-270,5.686073566141172859e-270,5.686073566141172859e-270,5.686073566141172859e-270
